# OpenSignals Text File Format. Version 1
# {"00:07:80:4B:15:F7": {"position": 0, "device": "biosignalsplux", "device name": "00:07:80:4B:15:F7", "device connection": "BTH00:07:80:4B:15:F7", "sampling rate": 1000, "resolution": [16], "firmware version": 775, "comments": "", "keywords": "", "mode": 0, "sync interval": 2, "date": "2023-3-8", "time": "15:51:47.222", "channels": [1], "sensor": ["ECG"], "label": ["CH1"], "column": ["nSeq", "DI", "CH1"], "special": [{"SpO2": [80, 40, 5, 4, 3, 3]}, {"SpO2": [80, 40, 5, 4, 3, 3]}, {"SpO2": [80, 40, 5, 4, 3, 3]}, {"SpO2": [80, 40, 5, 4, 3, 3]}, {"SpO2": [80, 40, 5, 4, 3, 3]}, {"SpO2": [80, 40, 5, 4, 3, 3]}, {"SpO2": [80, 40, 5, 4, 3, 3]}, {"SpO2": [80, 40, 5, 4, 3, 3]}], "digital IO": [0, 1], "sleeve color": ["green"], "convertedValues": 0}}
# EndOfHeader
0	0	32052	
1	0	32056	
2	0	32020	
3	0	31962	
4	0	31976	
5	0	31968	
6	0	31954	
7	0	31972	
8	0	32008	
9	0	32060	
10	0	32088	
11	0	32082	
12	0	32064	
13	0	32080	
14	0	32096	
15	0	32124	
16	0	32136	
17	0	32118	
18	0	32116	
19	0	32084	
20	0	32048	
21	0	32016	
22	0	32008	
23	0	32020	
24	0	32058	
25	0	32116	
26	0	32188	
27	0	32188	
28	0	32176	
29	0	32180	
30	0	32200	
31	0	32248	
32	0	32236	
33	0	32228	
34	0	32216	
35	0	32164	
36	0	32152	
37	0	32176	
38	0	32220	
39	0	32268	
40	0	32296	
41	0	32320	
42	0	32344	
43	0	32328	
44	0	32312	
45	0	32276	
46	0	32272	
47	0	32288	
48	0	32308	
49	0	32334	
50	0	32348	
51	0	32360	
52	0	32400	
53	0	32472	
54	0	32592	
55	0	32736	
56	0	32824	
57	0	32900	
58	0	32976	
59	0	33060	
60	0	33096	
61	0	33140	
62	0	33208	
63	0	33280	
64	0	33256	
65	0	33264	
66	0	33308	
67	0	33416	
68	0	33492	
69	0	33544	
70	0	33550	
71	0	33560	
72	0	33622	
73	0	33648	
74	0	33632	
75	0	33652	
76	0	33728	
77	0	33832	
78	0	33972	
79	0	34080	
80	0	34216	
81	0	34356	
82	0	34504	
83	0	34648	
84	0	34788	
85	0	34888	
86	0	34912	
87	0	34888	
88	0	34896	
89	0	34896	
90	0	34848	
91	0	34820	
92	0	34816	
93	0	34836	
94	0	34822	
95	0	34768	
96	0	34716	
97	0	34632	
98	0	34584	
99	0	34528	
100	0	34424	
101	0	34296	
102	0	34184	
103	0	34054	
104	0	33948	
105	0	33848	
106	0	33752	
107	0	33664	
108	0	33608	
109	0	33548	
110	0	33464	
111	0	33432	
112	0	33416	
113	0	33378	
114	0	33356	
115	0	33356	
116	0	33324	
117	0	33306	
118	0	33304	
119	0	33260	
120	0	33200	
121	0	33132	
122	0	33056	
123	0	32992	
124	0	32930	
125	0	32862	
126	0	32796	
127	0	32680	
128	0	32540	
129	0	32440	
130	0	32372	
131	0	32324	
132	0	32208	
133	0	32100	
134	0	32012	
135	0	31920	
136	0	31852	
137	0	31820	
138	0	31808	
139	0	31804	
140	0	31784	
141	0	31768	
142	0	31800	
143	0	31840	
144	0	31848	
145	0	31824	
146	0	31824	
147	0	31848	
148	0	31854	
149	0	31856	
150	0	31860	
151	0	31868	
152	0	31862	
153	0	31912	
154	0	31920	
155	0	31948	
156	0	31962	
157	0	31908	
158	0	31852	
159	0	31832	
160	0	31836	
161	0	31826	
162	0	31816	
163	0	31800	
164	0	31776	
165	0	31772	
166	0	31784	
167	0	31816	
168	0	31872	
169	0	31888	
170	0	31888	
171	0	31844	
172	0	31840	
173	0	31872	
174	0	31900	
175	0	31932	
176	0	31938	
177	0	31984	
178	0	31988	
179	0	32024	
180	0	32048	
181	0	32068	
182	0	32076	
183	0	32128	
184	0	32144	
185	0	32152	
186	0	32136	
187	0	32090	
188	0	32068	
189	0	32092	
190	0	32164	
191	0	32256	
192	0	32280	
193	0	32262	
194	0	32208	
195	0	32160	
196	0	32120	
197	0	32056	
198	0	31960	
199	0	31796	
200	0	31548	
201	0	31284	
202	0	31056	
203	0	30836	
204	0	30744	
205	0	30660	
206	0	30576	
207	0	30632	
208	0	30904	
209	0	31368	
210	0	31896	
211	0	32576	
212	0	33484	
213	0	34508	
214	0	35640	
215	0	36914	
216	0	38308	
217	0	39832	
218	0	41268	
219	0	42676	
220	0	44108	
221	0	45544	
222	0	47032	
223	0	48516	
224	0	49916	
225	0	51256	
226	0	52712	
227	0	54248	
228	0	55916	
229	0	57548	
230	0	59040	
231	0	60420	
232	0	61600	
233	0	62436	
234	0	62470	
235	0	61392	
236	0	59444	
237	0	56752	
238	0	53716	
239	0	50592	
240	0	47296	
241	0	43736	
242	0	40168	
243	0	37182	
244	0	34872	
245	0	33164	
246	0	31980	
247	0	31120	
248	0	30484	
249	0	30028	
250	0	29644	
251	0	29384	
252	0	29280	
253	0	29328	
254	0	29476	
255	0	29688	
256	0	29932	
257	0	30096	
258	0	30192	
259	0	30288	
260	0	30352	
261	0	30390	
262	0	30356	
263	0	30276	
264	0	30176	
265	0	30080	
266	0	29988	
267	0	29912	
268	0	29780	
269	0	29682	
270	0	29558	
271	0	29420	
272	0	29324	
273	0	29276	
274	0	29248	
275	0	29216	
276	0	29220	
277	0	29240	
278	0	29224	
279	0	29212	
280	0	29216	
281	0	29204	
282	0	29188	
283	0	29168	
284	0	29160	
285	0	29176	
286	0	29196	
287	0	29172	
288	0	29120	
289	0	29140	
290	0	29168	
291	0	29200	
292	0	29228	
293	0	29240	
294	0	29240	
295	0	29280	
296	0	29348	
297	0	29368	
298	0	29408	
299	0	29464	
300	0	29480	
301	0	29540	
302	0	29628	
303	0	29690	
304	0	29700	
305	0	29700	
306	0	29708	
307	0	29776	
308	0	29856	
309	0	29900	
310	0	29928	
311	0	29972	
312	0	29972	
313	0	29996	
314	0	30008	
315	0	30034	
316	0	30072	
317	0	30092	
318	0	30124	
319	0	30180	
320	0	30212	
321	0	30248	
322	0	30288	
323	0	30328	
324	0	30353	
325	0	30388	
326	0	30412	
327	0	30428	
328	0	30448	
329	0	30480	
330	0	30516	
331	0	30520	
332	0	30536	
333	0	30540	
334	0	30592	
335	0	30672	
336	0	30724	
337	0	30764	
338	0	30764	
339	0	30768	
340	0	30804	
341	0	30852	
342	0	30880	
343	0	30932	
344	0	30960	
345	0	30996	
346	0	31068	
347	0	31132	
348	0	31184	
349	0	31224	
350	0	31244	
351	0	31232	
352	0	31212	
353	0	31204	
354	0	31208	
355	0	31236	
356	0	31272	
357	0	31320	
358	0	31376	
359	0	31404	
360	0	31424	
361	0	31498	
362	0	31544	
363	0	31592	
364	0	31604	
365	0	31612	
366	0	31640	
367	0	31720	
368	0	31784	
369	0	31832	
370	0	31840	
371	0	31836	
372	0	31860	
373	0	31904	
374	0	31970	
375	0	32048	
376	0	32100	
377	0	32128	
378	0	32172	
379	0	32240	
380	0	32244	
381	0	32252	
382	0	32276	
383	0	32320	
384	0	32358	
385	0	32400	
386	0	32420	
387	0	32402	
388	0	32424	
389	0	32440	
390	0	32444	
391	0	32488	
392	0	32588	
393	0	32672	
394	0	32744	
395	0	32812	
396	0	32824	
397	0	32864	
398	0	32916	
399	0	32984	
400	0	33040	
401	0	33092	
402	0	33186	
403	0	33284	
404	0	33340	
405	0	33384	
406	0	33424	
407	0	33528	
408	0	33624	
409	0	33668	
410	0	33708	
411	0	33752	
412	0	33828	
413	0	33884	
414	0	33904	
415	0	33932	
416	0	34004	
417	0	34084	
418	0	34152	
419	0	34228	
420	0	34284	
421	0	34356	
422	0	34424	
423	0	34444	
424	0	34524	
425	0	34632	
426	0	34736	
427	0	34826	
428	0	34864	
429	0	34912	
430	0	35032	
431	0	35124	
432	0	35180	
433	0	35272	
434	0	35352	
435	0	35420	
436	0	35524	
437	0	35602	
438	0	35652	
439	0	35704	
440	0	35768	
441	0	35880	
442	0	35974	
443	0	36036	
444	0	36060	
445	0	36140	
446	0	36220	
447	0	36276	
448	0	36344	
449	0	36396	
450	0	36452	
451	0	36536	
452	0	36596	
453	0	36660	
454	0	36717	
455	0	36760	
456	0	36800	
457	0	36840	
458	0	36880	
459	0	36944	
460	0	36972	
461	0	37008	
462	0	37056	
463	0	37092	
464	0	37108	
465	0	37088	
466	0	37044	
467	0	37018	
468	0	37024	
469	0	37060	
470	0	37072	
471	0	37040	
472	0	37052	
473	0	37068	
474	0	37088	
475	0	37084	
476	0	37024	
477	0	36908	
478	0	36814	
479	0	36696	
480	0	36588	
481	0	36508	
482	0	36476	
483	0	36324	
484	0	36128	
485	0	35968	
486	0	35820	
487	0	35644	
488	0	35436	
489	0	35240	
490	0	35064	
491	0	34880	
492	0	34702	
493	0	34528	
494	0	34390	
495	0	34208	
496	0	33980	
497	0	33792	
498	0	33620	
499	0	33476	
500	0	33320	
501	0	33140	
502	0	32964	
503	0	32816	
504	0	32684	
505	0	32512	
506	0	32372	
507	0	32242	
508	0	32104	
509	0	31940	
510	0	31772	
511	0	31616	
512	0	31484	
513	0	31384	
514	0	31264	
515	0	31148	
516	0	31024	
517	0	30824	
518	0	30624	
519	0	30504	
520	0	30400	
521	0	30284	
522	0	30160	
523	0	30108	
524	0	30076	
525	0	30024	
526	0	29920	
527	0	29822	
528	0	29800	
529	0	29800	
530	0	29784	
531	0	29728	
532	0	29700	
533	0	29672	
534	0	29692	
535	0	29736	
536	0	29688	
537	0	29688	
538	0	29664	
539	0	29646	
540	0	29634	
541	0	29596	
542	0	29568	
543	0	29520	
544	0	29524	
545	0	29516	
546	0	29508	
547	0	29510	
548	0	29550	
549	0	29570	
550	0	29528	
551	0	29530	
552	0	29568	
553	0	29576	
554	0	29592	
555	0	29596	
556	0	29594	
557	0	29632	
558	0	29656	
559	0	29652	
560	0	29636	
561	0	29664	
562	0	29700	
563	0	29736	
564	0	29752	
565	0	29740	
566	0	29724	
567	0	29736	
568	0	29744	
569	0	29700	
570	0	29656	
571	0	29700	
572	0	29752	
573	0	29788	
574	0	29850	
575	0	29884	
576	0	29860	
577	0	29832	
578	0	29896	
579	0	29952	
580	0	29984	
581	0	29976	
582	0	29954	
583	0	29974	
584	0	29996	
585	0	30036	
586	0	30068	
587	0	30088	
588	0	30124	
589	0	30170	
590	0	30212	
591	0	30308	
592	0	30360	
593	0	30336	
594	0	30300	
595	0	30308	
596	0	30328	
597	0	30400	
598	0	30428	
599	0	30426	
600	0	30420	
601	0	30384	
602	0	30396	
603	0	30440	
604	0	30500	
605	0	30514	
606	0	30532	
607	0	30580	
608	0	30640	
609	0	30708	
610	0	30708	
611	0	30692	
612	0	30668	
613	0	30656	
614	0	30644	
615	0	30660	
616	0	30672	
617	0	30692	
618	0	30712	
619	0	30744	
620	0	30804	
621	0	30864	
622	0	30920	
623	0	30964	
624	0	31008	
625	0	31012	
626	0	30992	
627	0	30954	
628	0	30968	
629	0	30996	
630	0	31032	
631	0	31052	
632	0	31064	
633	0	31092	
634	0	31120	
635	0	31176	
636	0	31184	
637	0	31176	
638	0	31184	
639	0	31202	
640	0	31210	
641	0	31232	
642	0	31256	
643	0	31204	
644	0	31156	
645	0	31152	
646	0	31152	
647	0	31148	
648	0	31152	
649	0	31156	
650	0	31168	
651	0	31124	
652	0	31160	
653	0	31244	
654	0	31320	
655	0	31352	
656	0	31368	
657	0	31404	
658	0	31456	
659	0	31512	
660	0	31520	
661	0	31544	
662	0	31552	
663	0	31520	
664	0	31472	
665	0	31500	
666	0	31544	
667	0	31570	
668	0	31576	
669	0	31572	
670	0	31560	
671	0	31592	
672	0	31584	
673	0	31560	
674	0	31592	
675	0	31636	
676	0	31680	
677	0	31712	
678	0	31712	
679	0	31680	
680	0	31652	
681	0	31656	
682	0	31696	
683	0	31740	
684	0	31756	
685	0	31760	
686	0	31772	
687	0	31792	
688	0	31768	
689	0	31752	
690	0	31732	
691	0	31776	
692	0	31784	
693	0	31796	
694	0	31796	
695	0	31800	
696	0	31856	
697	0	31876	
698	0	31876	
699	0	31928	
700	0	31972	
701	0	31948	
702	0	31888	
703	0	31888	
704	0	31916	
705	0	31928	
706	0	31916	
707	0	31928	
708	0	31980	
709	0	32008	
710	0	32004	
711	0	31972	
712	0	31940	
713	0	31932	
714	0	31960	
715	0	31956	
716	0	31940	
717	0	31936	
718	0	31964	
719	0	31984	
720	0	31956	
721	0	31928	
722	0	31908	
723	0	31884	
724	0	31864	
725	0	31888	
726	0	31912	
727	0	31912	
728	0	31928	
729	0	31960	
730	0	31980	
731	0	31944	
732	0	31912	
733	0	31938	
734	0	31960	
735	0	31952	
736	0	31968	
737	0	31978	
738	0	31952	
739	0	31976	
740	0	32012	
741	0	32032	
742	0	32020	
743	0	32016	
744	0	32020	
745	0	32018	
746	0	32036	
747	0	32040	
748	0	32028	
749	0	32064	
750	0	32066	
751	0	32024	
752	0	31992	
753	0	31968	
754	0	31974	
755	0	31972	
756	0	31976	
757	0	32008	
758	0	32024	
759	0	32092	
760	0	32112	
761	0	32140	
762	0	32184	
763	0	32216	
764	0	32212	
765	0	32186	
766	0	32172	
767	0	32136	
768	0	32134	
769	0	32168	
770	0	32240	
771	0	32344	
772	0	32404	
773	0	32456	
774	0	32524	
775	0	32644	
776	0	32764	
777	0	32900	
778	0	32968	
779	0	33006	
780	0	33080	
781	0	33148	
782	0	33260	
783	0	33314	
784	0	33296	
785	0	33256	
786	0	33200	
787	0	33172	
788	0	33188	
789	0	33228	
790	0	33344	
791	0	33448	
792	0	33484	
793	0	33548	
794	0	33568	
795	0	33596	
796	0	33664	
797	0	33764	
798	0	33884	
799	0	33988	
800	0	34136	
801	0	34296	
802	0	34476	
803	0	34578	
804	0	34660	
805	0	34736	
806	0	34752	
807	0	34724	
808	0	34708	
809	0	34668	
810	0	34596	
811	0	34522	
812	0	34532	
813	0	34560	
814	0	34620	
815	0	34608	
816	0	34544	
817	0	34496	
818	0	34444	
819	0	34368	
820	0	34328	
821	0	34238	
822	0	34080	
823	0	33960	
824	0	33856	
825	0	33776	
826	0	33712	
827	0	33664	
828	0	33608	
829	0	33528	
830	0	33456	
831	0	33384	
832	0	33304	
833	0	33232	
834	0	33224	
835	0	33240	
836	0	33276	
837	0	33242	
838	0	33156	
839	0	33028	
840	0	32892	
841	0	32724	
842	0	32596	
843	0	32548	
844	0	32520	
845	0	32464	
846	0	32380	
847	0	32220	
848	0	32096	
849	0	32032	
850	0	32008	
851	0	31972	
852	0	31932	
853	0	31876	
854	0	31812	
855	0	31752	
856	0	31700	
857	0	31648	
858	0	31596	
859	0	31572	
860	0	31572	
861	0	31562	
862	0	31556	
863	0	31576	
864	0	31572	
865	0	31564	
866	0	31532	
867	0	31532	
868	0	31526	
869	0	31472	
870	0	31416	
871	0	31390	
872	0	31376	
873	0	31402	
874	0	31412	
875	0	31400	
876	0	31364	
877	0	31380	
878	0	31416	
879	0	31456	
880	0	31468	
881	0	31468	
882	0	31508	
883	0	31508	
884	0	31498	
885	0	31476	
886	0	31424	
887	0	31420	
888	0	31468	
889	0	31520	
890	0	31544	
891	0	31544	
892	0	31560	
893	0	31576	
894	0	31604	
895	0	31624	
896	0	31564	
897	0	31568	
898	0	31600	
899	0	31656	
900	0	31708	
901	0	31756	
902	0	31800	
903	0	31816	
904	0	31816	
905	0	31828	
906	0	31828	
907	0	31832	
908	0	31824	
909	0	31844	
910	0	31876	
911	0	31874	
912	0	31856	
913	0	31856	
914	0	31864	
915	0	31840	
916	0	31768	
917	0	31648	
918	0	31518	
919	0	31328	
920	0	31104	
921	0	30908	
922	0	30696	
923	0	30532	
924	0	30440	
925	0	30456	
926	0	30448	
927	0	30564	
928	0	30940	
929	0	31452	
930	0	32072	
931	0	32894	
932	0	33844	
933	0	34888	
934	0	36100	
935	0	37480	
936	0	38908	
937	0	40336	
938	0	41700	
939	0	43108	
940	0	44506	
941	0	46016	
942	0	47532	
943	0	48948	
944	0	50280	
945	0	51712	
946	0	53232	
947	0	54856	
948	0	56504	
949	0	58000	
950	0	59398	
951	0	60572	
952	0	61460	
953	0	61804	
954	0	61068	
955	0	59340	
956	0	56872	
957	0	53912	
958	0	50880	
959	0	47740	
960	0	44188	
961	0	40524	
962	0	37296	
963	0	34848	
964	0	33064	
965	0	31802	
966	0	30906	
967	0	30272	
968	0	29836	
969	0	29460	
970	0	29196	
971	0	29102	
972	0	29128	
973	0	29254	
974	0	29424	
975	0	29644	
976	0	29840	
977	0	30000	
978	0	30144	
979	0	30236	
980	0	30320	
981	0	30312	
982	0	30208	
983	0	30088	
984	0	29944	
985	0	29784	
986	0	29654	
987	0	29548	
988	0	29488	
989	0	29392	
990	0	29316	
991	0	29236	
992	0	29164	
993	0	29116	
994	0	29116	
995	0	29072	
996	0	29036	
997	0	29012	
998	0	29016	
999	0	29000	
1000	0	28956	
1001	0	28938	
1002	0	28932	
1003	0	28974	
1004	0	28976	
1005	0	28976	
1006	0	29034	
1007	0	29076	
1008	0	29088	
1009	0	29088	
1010	0	29068	
1011	0	29074	
1012	0	29076	
1013	0	29084	
1014	0	29096	
1015	0	29132	
1016	0	29120	
1017	0	29160	
1018	0	29212	
1019	0	29230	
1020	0	29306	
1021	0	29368	
1022	0	29388	
1023	0	29402	
1024	0	29493	
1025	0	29512	
1026	0	29520	
1027	0	29520	
1028	0	29524	
1029	0	29564	
1030	0	29634	
1031	0	29708	
1032	0	29748	
1033	0	29752	
1034	0	29768	
1035	0	29796	
1036	0	29840	
1037	0	29872	
1038	0	29936	
1039	0	29988	
1040	0	30024	
1041	0	30052	
1042	0	30080	
1043	0	30112	
1044	0	30112	
1045	0	30100	
1046	0	30128	
1047	0	30152	
1048	0	30140	
1049	0	30138	
1050	0	30180	
1051	0	30224	
1052	0	30256	
1053	0	30296	
1054	0	30336	
1055	0	30368	
1056	0	30460	
1057	0	30532	
1058	0	30576	
1059	0	30652	
1060	0	30698	
1061	0	30728	
1062	0	30776	
1063	0	30796	
1064	0	30798	
1065	0	30784	
1066	0	30800	
1067	0	30840	
1068	0	30848	
1069	0	30834	
1070	0	30848	
1071	0	30860	
1072	0	30892	
1073	0	30952	
1074	0	31024	
1075	0	31100	
1076	0	31144	
1077	0	31148	
1078	0	31232	
1079	0	31320	
1080	0	31364	
1081	0	31381	
1082	0	31396	
1083	0	31344	
1084	0	31324	
1085	0	31340	
1086	0	31400	
1087	0	31412	
1088	0	31424	
1089	0	31488	
1090	0	31552	
1091	0	31688	
1092	0	31760	
1093	0	31804	
1094	0	31868	
1095	0	31924	
1096	0	31916	
1097	0	31924	
1098	0	31928	
1099	0	31908	
1100	0	31940	
1101	0	32008	
1102	0	32082	
1103	0	32188	
1104	0	32216	
1105	0	32268	
1106	0	32340	
1107	0	32352	
1108	0	32324	
1109	0	32344	
1110	0	32364	
1111	0	32348	
1112	0	32344	
1113	0	32426	
1114	0	32556	
1115	0	32648	
1116	0	32656	
1117	0	32608	
1118	0	32632	
1119	0	32688	
1120	0	32708	
1121	0	32736	
1122	0	32784	
1123	0	32872	
1124	0	32984	
1125	0	33064	
1126	0	33100	
1127	0	33152	
1128	0	33176	
1129	0	33196	
1130	0	33288	
1131	0	33436	
1132	0	33548	
1133	0	33648	
1134	0	33676	
1135	0	33716	
1136	0	33776	
1137	0	33824	
1138	0	33860	
1139	0	33916	
1140	0	33976	
1141	0	34028	
1142	0	34068	
1143	0	34140	
1144	0	34224	
1145	0	34264	
1146	0	34296	
1147	0	34410	
1148	0	34464	
1149	0	34528	
1150	0	34604	
1151	0	34688	
1152	0	34750	
1153	0	34816	
1154	0	34928	
1155	0	35004	
1156	0	35072	
1157	0	35144	
1158	0	35182	
1159	0	35224	
1160	0	35232	
1161	0	35272	
1162	0	35364	
1163	0	35434	
1164	0	35474	
1165	0	35540	
1166	0	35604	
1167	0	35608	
1168	0	35696	
1169	0	35784	
1170	0	35884	
1171	0	35988	
1172	0	36096	
1173	0	36130	
1174	0	36144	
1175	0	36164	
1176	0	36232	
1177	0	36288	
1178	0	36328	
1179	0	36352	
1180	0	36384	
1181	0	36440	
1182	0	36456	
1183	0	36428	
1184	0	36396	
1185	0	36368	
1186	0	36340	
1187	0	36276	
1188	0	36272	
1189	0	36292	
1190	0	36292	
1191	0	36296	
1192	0	36332	
1193	0	36320	
1194	0	36272	
1195	0	36192	
1196	0	36192	
1197	0	36160	
1198	0	36072	
1199	0	35932	
1200	0	35788	
1201	0	35656	
1202	0	35512	
1203	0	35360	
1204	0	35140	
1205	0	34948	
1206	0	34804	
1207	0	34660	
1208	0	34496	
1209	0	34356	
1210	0	34200	
1211	0	34020	
1212	0	33804	
1213	0	33588	
1214	0	33372	
1215	0	33220	
1216	0	33040	
1217	0	32872	
1218	0	32660	
1219	0	32448	
1220	0	32288	
1221	0	32112	
1222	0	31948	
1223	0	31778	
1224	0	31592	
1225	0	31426	
1226	0	31272	
1227	0	31124	
1228	0	30956	
1229	0	30768	
1230	0	30568	
1231	0	30392	
1232	0	30284	
1233	0	30160	
1234	0	30060	
1235	0	29960	
1236	0	29834	
1237	0	29706	
1238	0	29628	
1239	0	29536	
1240	0	29452	
1241	0	29400	
1242	0	29346	
1243	0	29310	
1244	0	29258	
1245	0	29188	
1246	0	29124	
1247	0	29080	
1248	0	28984	
1249	0	28968	
1250	0	28936	
1251	0	28888	
1252	0	28864	
1253	0	28888	
1254	0	28885	
1255	0	28870	
1256	0	28808	
1257	0	28752	
1258	0	28720	
1259	0	28712	
1260	0	28756	
1261	0	28780	
1262	0	28796	
1263	0	28826	
1264	0	28812	
1265	0	28804	
1266	0	28816	
1267	0	28784	
1268	0	28808	
1269	0	28868	
1270	0	28872	
1271	0	28896	
1272	0	28904	
1273	0	28912	
1274	0	28974	
1275	0	29060	
1276	0	29146	
1277	0	29200	
1278	0	29208	
1279	0	29212	
1280	0	29202	
1281	0	29180	
1282	0	29204	
1283	0	29204	
1284	0	29192	
1285	0	29224	
1286	0	29270	
1287	0	29308	
1288	0	29332	
1289	0	29360	
1290	0	29424	
1291	0	29436	
1292	0	29432	
1293	0	29456	
1294	0	29484	
1295	0	29492	
1296	0	29520	
1297	0	29560	
1298	0	29580	
1299	0	29576	
1300	0	29628	
1301	0	29728	
1302	0	29792	
1303	0	29844	
1304	0	29880	
1305	0	29938	
1306	0	30016	
1307	0	30012	
1308	0	30016	
1309	0	30020	
1310	0	30052	
1311	0	30056	
1312	0	30072	
1313	0	30076	
1314	0	30096	
1315	0	30116	
1316	0	30136	
1317	0	30160	
1318	0	30188	
1319	0	30220	
1320	0	30264	
1321	0	30272	
1322	0	30284	
1323	0	30268	
1324	0	30260	
1325	0	30308	
1326	0	30352	
1327	0	30396	
1328	0	30452	
1329	0	30548	
1330	0	30584	
1331	0	30568	
1332	0	30592	
1333	0	30652	
1334	0	30668	
1335	0	30664	
1336	0	30638	
1337	0	30628	
1338	0	30640	
1339	0	30660	
1340	0	30652	
1341	0	30620	
1342	0	30588	
1343	0	30604	
1344	0	30622	
1345	0	30592	
1346	0	30654	
1347	0	30758	
1348	0	30792	
1349	0	30776	
1350	0	30768	
1351	0	30776	
1352	0	30828	
1353	0	30960	
1354	0	31004	
1355	0	31052	
1356	0	31060	
1357	0	31056	
1358	0	31020	
1359	0	31068	
1360	0	31092	
1361	0	31080	
1362	0	31072	
1363	0	31016	
1364	0	31020	
1365	0	31032	
1366	0	31032	
1367	0	31076	
1368	0	31116	
1369	0	31140	
1370	0	31168	
1371	0	31186	
1372	0	31192	
1373	0	31232	
1374	0	31288	
1375	0	31340	
1376	0	31358	
1377	0	31308	
1378	0	31296	
1379	0	31300	
1380	0	31276	
1381	0	31280	
1382	0	31332	
1383	0	31368	
1384	0	31360	
1385	0	31328	
1386	0	31314	
1387	0	31296	
1388	0	31290	
1389	0	31336	
1390	0	31380	
1391	0	31396	
1392	0	31392	
1393	0	31376	
1394	0	31370	
1395	0	31356	
1396	0	31392	
1397	0	31432	
1398	0	31464	
1399	0	31512	
1400	0	31532	
1401	0	31568	
1402	0	31528	
1403	0	31472	
1404	0	31436	
1405	0	31412	
1406	0	31424	
1407	0	31476	
1408	0	31442	
1409	0	31468	
1410	0	31536	
1411	0	31544	
1412	0	31528	
1413	0	31552	
1414	0	31592	
1415	0	31624	
1416	0	31620	
1417	0	31592	
1418	0	31552	
1419	0	31514	
1420	0	31564	
1421	0	31680	
1422	0	31716	
1423	0	31684	
1424	0	31660	
1425	0	31680	
1426	0	31728	
1427	0	31756	
1428	0	31788	
1429	0	31808	
1430	0	31836	
1431	0	31816	
1432	0	31784	
1433	0	31784	
1434	0	31792	
1435	0	31792	
1436	0	31764	
1437	0	31688	
1438	0	31624	
1439	0	31624	
1440	0	31636	
1441	0	31696	
1442	0	31712	
1443	0	31696	
1444	0	31712	
1445	0	31764	
1446	0	31780	
1447	0	31772	
1448	0	31712	
1449	0	31716	
1450	0	31740	
1451	0	31792	
1452	0	31888	
1453	0	31924	
1454	0	31960	
1455	0	31944	
1456	0	31908	
1457	0	31904	
1458	0	31904	
1459	0	31908	
1460	0	31876	
1461	0	31896	
1462	0	31908	
1463	0	31912	
1464	0	31928	
1465	0	31896	
1466	0	31938	
1467	0	31992	
1468	0	32020	
1469	0	32088	
1470	0	32120	
1471	0	32132	
1472	0	32132	
1473	0	32160	
1474	0	32144	
1475	0	32100	
1476	0	32056	
1477	0	32052	
1478	0	32028	
1479	0	32016	
1480	0	32020	
1481	0	32048	
1482	0	32060	
1483	0	32040	
1484	0	32016	
1485	0	31944	
1486	0	31932	
1487	0	31960	
1488	0	32034	
1489	0	32084	
1490	0	32124	
1491	0	32148	
1492	0	32204	
1493	0	32340	
1494	0	32480	
1495	0	32600	
1496	0	32700	
1497	0	32800	
1498	0	32884	
1499	0	32912	
1500	0	32904	
1501	0	32892	
1502	0	32872	
1503	0	32912	
1504	0	32964	
1505	0	33004	
1506	0	33064	
1507	0	33128	
1508	0	33188	
1509	0	33306	
1510	0	33436	
1511	0	33560	
1512	0	33592	
1513	0	33604	
1514	0	33632	
1515	0	33680	
1516	0	33720	
1517	0	33792	
1518	0	33928	
1519	0	34064	
1520	0	34212	
1521	0	34340	
1522	0	34438	
1523	0	34564	
1524	0	34668	
1525	0	34636	
1526	0	34600	
1527	0	34576	
1528	0	34612	
1529	0	34632	
1530	0	34620	
1531	0	34564	
1532	0	34588	
1533	0	34676	
1534	0	34680	
1535	0	34616	
1536	0	34556	
1537	0	34504	
1538	0	34440	
1539	0	34376	
1540	0	34240	
1541	0	34128	
1542	0	34044	
1543	0	33920	
1544	0	33772	
1545	0	33656	
1546	0	33608	
1547	0	33588	
1548	0	33548	
1549	0	33524	
1550	0	33460	
1551	0	33396	
1552	0	33312	
1553	0	33312	
1554	0	33324	
1555	0	33288	
1556	0	33260	
1557	0	33244	
1558	0	33236	
1559	0	33152	
1560	0	32992	
1561	0	32872	
1562	0	32816	
1563	0	32788	
1564	0	32728	
1565	0	32658	
1566	0	32544	
1567	0	32386	
1568	0	32284	
1569	0	32144	
1570	0	32036	
1571	0	31924	
1572	0	31836	
1573	0	31792	
1574	0	31768	
1575	0	31684	
1576	0	31632	
1577	0	31584	
1578	0	31556	
1579	0	31572	
1580	0	31616	
1581	0	31692	
1582	0	31706	
1583	0	31778	
1584	0	31836	
1585	0	31872	
1586	0	31938	
1587	0	31952	
1588	0	31880	
1589	0	31800	
1590	0	31760	
1591	0	31776	
1592	0	31780	
1593	0	31748	
1594	0	31720	
1595	0	31716	
1596	0	31752	
1597	0	31778	
1598	0	31776	
1599	0	31756	
1600	0	31796	
1601	0	31816	
1602	0	31808	
1603	0	31868	
1604	0	31918	
1605	0	31948	
1606	0	31968	
1607	0	31938	
1608	0	31912	
1609	0	31924	
1610	0	31920	
1611	0	31884	
1612	0	31870	
1613	0	31832	
1614	0	31784	
1615	0	31784	
1616	0	31772	
1617	0	31812	
1618	0	31852	
1619	0	31904	
1620	0	31946	
1621	0	32036	
1622	0	32100	
1623	0	32128	
1624	0	32156	
1625	0	32132	
1626	0	32092	
1627	0	32096	
1628	0	32096	
1629	0	32108	
1630	0	32144	
1631	0	32160	
1632	0	32108	
1633	0	32020	
1634	0	31948	
1635	0	31904	
1636	0	31792	
1637	0	31628	
1638	0	31412	
1639	0	31186	
1640	0	30944	
1641	0	30734	
1642	0	30592	
1643	0	30482	
1644	0	30436	
1645	0	30516	
1646	0	30692	
1647	0	31056	
1648	0	31524	
1649	0	32088	
1650	0	32808	
1651	0	33768	
1652	0	34960	
1653	0	36320	
1654	0	37888	
1655	0	39464	
1656	0	40952	
1657	0	42416	
1658	0	43904	
1659	0	45346	
1660	0	46816	
1661	0	48252	
1662	0	49536	
1663	0	50860	
1664	0	52264	
1665	0	53680	
1666	0	55160	
1667	0	56636	
1668	0	58100	
1669	0	59528	
1670	0	60636	
1671	0	61368	
1672	0	61368	
1673	0	60392	
1674	0	58568	
1675	0	55962	
1676	0	52884	
1677	0	49832	
1678	0	46532	
1679	0	42932	
1680	0	39316	
1681	0	36232	
1682	0	33908	
1683	0	32192	
1684	0	31048	
1685	0	30324	
1686	0	29936	
1687	0	29700	
1688	0	29540	
1689	0	29256	
1690	0	29064	
1691	0	29100	
1692	0	29208	
1693	0	29332	
1694	0	29468	
1695	0	29666	
1696	0	29888	
1697	0	29984	
1698	0	30064	
1699	0	30128	
1700	0	30144	
1701	0	30096	
1702	0	30074	
1703	0	29996	
1704	0	29808	
1705	0	29678	
1706	0	29588	
1707	0	29470	
1708	0	29384	
1709	0	29396	
1710	0	29376	
1711	0	29384	
1712	0	29324	
1713	0	29268	
1714	0	29252	
1715	0	29216	
1716	0	29218	
1717	0	29198	
1718	0	29122	
1719	0	29184	
1720	0	29312	
1721	0	29388	
1722	0	29380	
1723	0	29356	
1724	0	29340	
1725	0	29248	
1726	0	29218	
1727	0	29272	
1728	0	29332	
1729	0	29428	
1730	0	29484	
1731	0	29432	
1732	0	29408	
1733	0	29440	
1734	0	29422	
1735	0	29456	
1736	0	29528	
1737	0	29552	
1738	0	29640	
1739	0	29720	
1740	0	29748	
1741	0	29784	
1742	0	29818	
1743	0	29800	
1744	0	29788	
1745	0	29840	
1746	0	29944	
1747	0	30052	
1748	0	30108	
1749	0	30168	
1750	0	30156	
1751	0	30144	
1752	0	30144	
1753	0	30144	
1754	0	30196	
1755	0	30296	
1756	0	30328	
1757	0	30292	
1758	0	30252	
1759	0	30252	
1760	0	30272	
1761	0	30264	
1762	0	30252	
1763	0	30330	
1764	0	30384	
1765	0	30380	
1766	0	30416	
1767	0	30400	
1768	0	30362	
1769	0	30396	
1770	0	30496	
1771	0	30528	
1772	0	30522	
1773	0	30568	
1774	0	30600	
1775	0	30664	
1776	0	30732	
1777	0	30788	
1778	0	30820	
1779	0	30820	
1780	0	30846	
1781	0	30872	
1782	0	30930	
1783	0	30904	
1784	0	30896	
1785	0	30928	
1786	0	31004	
1787	0	31072	
1788	0	31112	
1789	0	31192	
1790	0	31296	
1791	0	31280	
1792	0	31280	
1793	0	31284	
1794	0	31240	
1795	0	31164	
1796	0	31200	
1797	0	31240	
1798	0	31280	
1799	0	31340	
1800	0	31404	
1801	0	31502	
1802	0	31552	
1803	0	31604	
1804	0	31656	
1805	0	31690	
1806	0	31708	
1807	0	31760	
1808	0	31832	
1809	0	31860	
1810	0	31888	
1811	0	31920	
1812	0	31930	
1813	0	31988	
1814	0	32064	
1815	0	32098	
1816	0	32116	
1817	0	32134	
1818	0	32172	
1819	0	32192	
1820	0	32228	
1821	0	32256	
1822	0	32304	
1823	0	32364	
1824	0	32472	
1825	0	32512	
1826	0	32532	
1827	0	32544	
1828	0	32524	
1829	0	32524	
1830	0	32548	
1831	0	32636	
1832	0	32744	
1833	0	32800	
1834	0	32808	
1835	0	32936	
1836	0	33096	
1837	0	33156	
1838	0	33116	
1839	0	33120	
1840	0	33180	
1841	0	33248	
1842	0	33308	
1843	0	33384	
1844	0	33468	
1845	0	33560	
1846	0	33614	
1847	0	33712	
1848	0	33760	
1849	0	33764	
1850	0	33772	
1851	0	33784	
1852	0	33800	
1853	0	33868	
1854	0	33976	
1855	0	34076	
1856	0	34140	
1857	0	34216	
1858	0	34300	
1859	0	34392	
1860	0	34512	
1861	0	34600	
1862	0	34652	
1863	0	34696	
1864	0	34772	
1865	0	34868	
1866	0	35036	
1867	0	35142	
1868	0	35154	
1869	0	35172	
1870	0	35252	
1871	0	35316	
1872	0	35316	
1873	0	35384	
1874	0	35452	
1875	0	35512	
1876	0	35624	
1877	0	35680	
1878	0	35768	
1879	0	35768	
1880	0	35880	
1881	0	35968	
1882	0	36008	
1883	0	36012	
1884	0	36060	
1885	0	36164	
1886	0	36276	
1887	0	36364	
1888	0	36410	
1889	0	36504	
1890	0	36576	
1891	0	36646	
1892	0	36704	
1893	0	36772	
1894	0	36808	
1895	0	36860	
1896	0	36860	
1897	0	36876	
1898	0	36928	
1899	0	37036	
1900	0	37096	
1901	0	37128	
1902	0	37212	
1903	0	37296	
1904	0	37332	
1905	0	37312	
1906	0	37260	
1907	0	37204	
1908	0	37132	
1909	0	37080	
1910	0	37104	
1911	0	37088	
1912	0	37064	
1913	0	37024	
1914	0	36924	
1915	0	36888	
1916	0	36816	
1917	0	36728	
1918	0	36632	
1919	0	36496	
1920	0	36328	
1921	0	36192	
1922	0	35960	
1923	0	35692	
1924	0	35500	
1925	0	35312	
1926	0	35136	
1927	0	34968	
1928	0	34804	
1929	0	34640	
1930	0	34500	
1931	0	34356	
1932	0	34180	
1933	0	33976	
1934	0	33812	
1935	0	33652	
1936	0	33452	
1937	0	33308	
1938	0	33148	
1939	0	32958	
1940	0	32768	
1941	0	32628	
1942	0	32496	
1943	0	32368	
1944	0	32212	
1945	0	32016	
1946	0	31776	
1947	0	31608	
1948	0	31440	
1949	0	31300	
1950	0	31134	
1951	0	30976	
1952	0	30864	
1953	0	30800	
1954	0	30740	
1955	0	30572	
1956	0	30468	
1957	0	30448	
1958	0	30396	
1959	0	30300	
1960	0	30204	
1961	0	30164	
1962	0	30128	
1963	0	30080	
1964	0	29980	
1965	0	29900	
1966	0	29864	
1967	0	29846	
1968	0	29788	
1969	0	29772	
1970	0	29722	
1971	0	29628	
1972	0	29560	
1973	0	29504	
1974	0	29452	
1975	0	29492	
1976	0	29604	
1977	0	29684	
1978	0	29664	
1979	0	29612	
1980	0	29560	
1981	0	29536	
1982	0	29516	
1983	0	29524	
1984	0	29552	
1985	0	29596	
1986	0	29664	
1987	0	29700	
1988	0	29704	
1989	0	29732	
1990	0	29712	
1991	0	29696	
1992	0	29748	
1993	0	29804	
1994	0	29808	
1995	0	29794	
1996	0	29784	
1997	0	29792	
1998	0	29832	
1999	0	29872	
2000	0	29884	
2001	0	29872	
2002	0	29916	
2003	0	29936	
2004	0	29952	
2005	0	29980	
2006	0	30020	
2007	0	30016	
2008	0	30000	
2009	0	30052	
2010	0	30060	
2011	0	30020	
2012	0	29976	
2013	0	29988	
2014	0	30020	
2015	0	30060	
2016	0	30100	
2017	0	30144	
2018	0	30228	
2019	0	30268	
2020	0	30304	
2021	0	30300	
2022	0	30284	
2023	0	30272	
2024	0	30244	
2025	0	30272	
2026	0	30356	
2027	0	30444	
2028	0	30436	
2029	0	30388	
2030	0	30436	
2031	0	30590	
2032	0	30688	
2033	0	30688	
2034	0	30710	
2035	0	30754	
2036	0	30760	
2037	0	30746	
2038	0	30764	
2039	0	30768	
2040	0	30784	
2041	0	30772	
2042	0	30752	
2043	0	30744	
2044	0	30716	
2045	0	30684	
2046	0	30648	
2047	0	30672	
2048	0	30752	
2049	0	30852	
2050	0	30896	
2051	0	30920	
2052	0	30944	
2053	0	30964	
2054	0	30952	
2055	0	30980	
2056	0	30968	
2057	0	30984	
2058	0	31044	
2059	0	31096	
2060	0	31130	
2061	0	31164	
2062	0	31224	
2063	0	31224	
2064	0	31212	
2065	0	31218	
2066	0	31208	
2067	0	31220	
2068	0	31228	
2069	0	31266	
2070	0	31320	
2071	0	31344	
2072	0	31368	
2073	0	31428	
2074	0	31472	
2075	0	31412	
2076	0	31400	
2077	0	31428	
2078	0	31440	
2079	0	31448	
2080	0	31482	
2081	0	31524	
2082	0	31584	
2083	0	31620	
2084	0	31560	
2085	0	31556	
2086	0	31536	
2087	0	31532	
2088	0	31520	
2089	0	31512	
2090	0	31528	
2091	0	31580	
2092	0	31580	
2093	0	31624	
2094	0	31672	
2095	0	31684	
2096	0	31708	
2097	0	31724	
2098	0	31744	
2099	0	31748	
2100	0	31776	
2101	0	31828	
2102	0	31880	
2103	0	31896	
2104	0	31896	
2105	0	31864	
2106	0	31770	
2107	0	31724	
2108	0	31756	
2109	0	31834	
2110	0	31850	
2111	0	31846	
2112	0	31868	
2113	0	31888	
2114	0	31852	
2115	0	31864	
2116	0	31872	
2117	0	31840	
2118	0	31864	
2119	0	31924	
2120	0	31952	
2121	0	31960	
2122	0	31984	
2123	0	32012	
2124	0	32020	
2125	0	32012	
2126	0	32016	
2127	0	32016	
2128	0	32008	
2129	0	32044	
2130	0	32040	
2131	0	32046	
2132	0	32046	
2133	0	32076	
2134	0	32116	
2135	0	32098	
2136	0	32084	
2137	0	32096	
2138	0	32126	
2139	0	32128	
2140	0	32132	
2141	0	32120	
2142	0	32104	
2143	0	32124	
2144	0	32208	
2145	0	32164	
2146	0	32096	
2147	0	32092	
2148	0	32128	
2149	0	32122	
2150	0	32076	
2151	0	32068	
2152	0	32104	
2153	0	32060	
2154	0	32000	
2155	0	32032	
2156	0	32056	
2157	0	32064	
2158	0	32032	
2159	0	32056	
2160	0	32084	
2161	0	32100	
2162	0	32156	
2163	0	32210	
2164	0	32248	
2165	0	32284	
2166	0	32328	
2167	0	32332	
2168	0	32316	
2169	0	32324	
2170	0	32328	
2171	0	32368	
2172	0	32372	
2173	0	32380	
2174	0	32400	
2175	0	32416	
2176	0	32408	
2177	0	32384	
2178	0	32384	
2179	0	32448	
2180	0	32512	
2181	0	32526	
2182	0	32492	
2183	0	32468	
2184	0	32464	
2185	0	32420	
2186	0	32372	
2187	0	32308	
2188	0	32272	
2189	0	32266	
2190	0	32264	
2191	0	32264	
2192	0	32332	
2193	0	32398	
2194	0	32394	
2195	0	32344	
2196	0	32328	
2197	0	32312	
2198	0	32412	
2199	0	32468	
2200	0	32480	
2201	0	32512	
2202	0	32584	
2203	0	32668	
2204	0	32736	
2205	0	32780	
2206	0	32884	
2207	0	33036	
2208	0	33152	
2209	0	33236	
2210	0	33292	
2211	0	33356	
2212	0	33456	
2213	0	33548	
2214	0	33624	
2215	0	33644	
2216	0	33600	
2217	0	33544	
2218	0	33584	
2219	0	33672	
2220	0	33704	
2221	0	33672	
2222	0	33688	
2223	0	33772	
2224	0	33832	
2225	0	33876	
2226	0	33924	
2227	0	34012	
2228	0	34088	
2229	0	34168	
2230	0	34288	
2231	0	34488	
2232	0	34680	
2233	0	34800	
2234	0	34900	
2235	0	35000	
2236	0	35092	
2237	0	35136	
2238	0	35120	
2239	0	35098	
2240	0	35064	
2241	0	35084	
2242	0	35088	
2243	0	35140	
2244	0	35142	
2245	0	35132	
2246	0	35082	
2247	0	35036	
2248	0	34952	
2249	0	34868	
2250	0	34784	
2251	0	34692	
2252	0	34632	
2253	0	34520	
2254	0	34368	
2255	0	34264	
2256	0	34200	
2257	0	34184	
2258	0	34192	
2259	0	34148	
2260	0	34092	
2261	0	33992	
2262	0	33924	
2263	0	33832	
2264	0	33768	
2265	0	33676	
2266	0	33612	
2267	0	33628	
2268	0	33630	
2269	0	33592	
2270	0	33500	
2271	0	33380	
2272	0	33244	
2273	0	33208	
2274	0	33200	
2275	0	33188	
2276	0	33084	
2277	0	33018	
2278	0	32924	
2279	0	32768	
2280	0	32652	
2281	0	32536	
2282	0	32416	
2283	0	32356	
2284	0	32332	
2285	0	32336	
2286	0	32328	
2287	0	32312	
2288	0	32252	
2289	0	32168	
2290	0	32160	
2291	0	32208	
2292	0	32216	
2293	0	32216	
2294	0	32208	
2295	0	32240	
2296	0	32264	
2297	0	32328	
2298	0	32356	
2299	0	32344	
2300	0	32308	
2301	0	32288	
2302	0	32276	
2303	0	32236	
2304	0	32236	
2305	0	32252	
2306	0	32316	
2307	0	32360	
2308	0	32360	
2309	0	32300	
2310	0	32260	
2311	0	32164	
2312	0	32114	
2313	0	32124	
2314	0	32122	
2315	0	32024	
2316	0	32000	
2317	0	32016	
2318	0	31984	
2319	0	31988	
2320	0	32004	
2321	0	32048	
2322	0	32084	
2323	0	32152	
2324	0	32240	
2325	0	32290	
2326	0	32336	
2327	0	32352	
2328	0	32292	
2329	0	32228	
2330	0	32224	
2331	0	32332	
2332	0	32482	
2333	0	32504	
2334	0	32446	
2335	0	32406	
2336	0	32388	
2337	0	32396	
2338	0	32388	
2339	0	32356	
2340	0	32354	
2341	0	32424	
2342	0	32444	
2343	0	32500	
2344	0	32532	
2345	0	32448	
2346	0	32404	
2347	0	32320	
2348	0	32240	
2349	0	32140	
2350	0	31972	
2351	0	31804	
2352	0	31576	
2353	0	31272	
2354	0	31052	
2355	0	30924	
2356	0	30832	
2357	0	30808	
2358	0	30944	
2359	0	31296	
2360	0	31808	
2361	0	32404	
2362	0	33208	
2363	0	34192	
2364	0	35392	
2365	0	36724	
2366	0	38284	
2367	0	39874	
2368	0	41416	
2369	0	42944	
2370	0	44440	
2371	0	45920	
2372	0	47436	
2373	0	48884	
2374	0	50200	
2375	0	51572	
2376	0	52976	
2377	0	54408	
2378	0	55892	
2379	0	57508	
2380	0	59084	
2381	0	60616	
2382	0	61840	
2383	0	62680	
2384	0	62832	
2385	0	61896	
2386	0	60016	
2387	0	57344	
2388	0	54196	
2389	0	50984	
2390	0	47604	
2391	0	43992	
2392	0	40340	
2393	0	37152	
2394	0	34688	
2395	0	32912	
2396	0	31704	
2397	0	30868	
2398	0	30336	
2399	0	30060	
2400	0	29828	
2401	0	29616	
2402	0	29392	
2403	0	29344	
2404	0	29432	
2405	0	29564	
2406	0	29694	
2407	0	29824	
2408	0	29950	
2409	0	30088	
2410	0	30252	
2411	0	30352	
2412	0	30452	
2413	0	30522	
2414	0	30504	
2415	0	30440	
2416	0	30394	
2417	0	30332	
2418	0	30256	
2419	0	30146	
2420	0	30028	
2421	0	29928	
2422	0	29820	
2423	0	29760	
2424	0	29764	
2425	0	29760	
2426	0	29762	
2427	0	29764	
2428	0	29684	
2429	0	29620	
2430	0	29604	
2431	0	29672	
2432	0	29712	
2433	0	29720	
2434	0	29740	
2435	0	29746	
2436	0	29716	
2437	0	29708	
2438	0	29670	
2439	0	29694	
2440	0	29730	
2441	0	29712	
2442	0	29680	
2443	0	29736	
2444	0	29808	
2445	0	29804	
2446	0	29828	
2447	0	29876	
2448	0	29932	
2449	0	29966	
2450	0	29948	
2451	0	29904	
2452	0	29928	
2453	0	29968	
2454	0	29944	
2455	0	29952	
2456	0	29984	
2457	0	30072	
2458	0	30132	
2459	0	30192	
2460	0	30296	
2461	0	30340	
2462	0	30360	
2463	0	30372	
2464	0	30398	
2465	0	30472	
2466	0	30544	
2467	0	30536	
2468	0	30532	
2469	0	30568	
2470	0	30588	
2471	0	30610	
2472	0	30688	
2473	0	30778	
2474	0	30828	
2475	0	30872	
2476	0	30860	
2477	0	30816	
2478	0	30848	
2479	0	30948	
2480	0	30962	
2481	0	30932	
2482	0	30992	
2483	0	31048	
2484	0	31104	
2485	0	31144	
2486	0	31164	
2487	0	31140	
2488	0	31128	
2489	0	31200	
2490	0	31296	
2491	0	31356	
2492	0	31386	
2493	0	31412	
2494	0	31452	
2495	0	31468	
2496	0	31484	
2497	0	31500	
2498	0	31480	
2499	0	31500	
2500	0	31524	
2501	0	31588	
2502	0	31670	
2503	0	31712	
2504	0	31788	
2505	0	31828	
2506	0	31824	
2507	0	31824	
2508	0	31856	
2509	0	31884	
2510	0	31880	
2511	0	31886	
2512	0	31924	
2513	0	31932	
2514	0	31944	
2515	0	32040	
2516	0	32128	
2517	0	32164	
2518	0	32204	
2519	0	32248	
2520	0	32322	
2521	0	32384	
2522	0	32404	
2523	0	32400	
2524	0	32416	
2525	0	32490	
2526	0	32552	
2527	0	32638	
2528	0	32720	
2529	0	32744	
2530	0	32798	
2531	0	32856	
2532	0	32900	
2533	0	32956	
2534	0	32996	
2535	0	33008	
2536	0	33040	
2537	0	33078	
2538	0	33120	
2539	0	33120	
2540	0	33124	
2541	0	33150	
2542	0	33168	
2543	0	33272	
2544	0	33410	
2545	0	33496	
2546	0	33584	
2547	0	33604	
2548	0	33616	
2549	0	33652	
2550	0	33728	
2551	0	33724	
2552	0	33664	
2553	0	33664	
2554	0	33706	
2555	0	33728	
2556	0	33820	
2557	0	33960	
2558	0	33984	
2559	0	33980	
2560	0	34040	
2561	0	34124	
2562	0	34180	
2563	0	34232	
2564	0	34308	
2565	0	34392	
2566	0	34512	
2567	0	34548	
2568	0	34596	
2569	0	34672	
2570	0	34776	
2571	0	34816	
2572	0	34872	
2573	0	34972	
2574	0	35116	
2575	0	35228	
2576	0	35290	
2577	0	35332	
2578	0	35404	
2579	0	35536	
2580	0	35636	
2581	0	35716	
2582	0	35744	
2583	0	35800	
2584	0	35892	
2585	0	36016	
2586	0	36074	
2587	0	36090	
2588	0	36108	
2589	0	36144	
2590	0	36200	
2591	0	36308	
2592	0	36376	
2593	0	36400	
2594	0	36444	
2595	0	36500	
2596	0	36512	
2597	0	36530	
2598	0	36568	
2599	0	36684	
2600	0	36736	
2601	0	36824	
2602	0	36916	
2603	0	37004	
2604	0	37132	
2605	0	37210	
2606	0	37292	
2607	0	37396	
2608	0	37440	
2609	0	37424	
2610	0	37442	
2611	0	37452	
2612	0	37468	
2613	0	37456	
2614	0	37460	
2615	0	37468	
2616	0	37508	
2617	0	37528	
2618	0	37568	
2619	0	37548	
2620	0	37525	
2621	0	37492	
2622	0	37436	
2623	0	37416	
2624	0	37440	
2625	0	37392	
2626	0	37252	
2627	0	37172	
2628	0	37088	
2629	0	36992	
2630	0	36892	
2631	0	36768	
2632	0	36644	
2633	0	36544	
2634	0	36440	
2635	0	36288	
2636	0	36096	
2637	0	35888	
2638	0	35644	
2639	0	35414	
2640	0	35244	
2641	0	35082	
2642	0	34892	
2643	0	34720	
2644	0	34500	
2645	0	34328	
2646	0	34152	
2647	0	34012	
2648	0	33856	
2649	0	33666	
2650	0	33470	
2651	0	33252	
2652	0	33128	
2653	0	33032	
2654	0	32948	
2655	0	32784	
2656	0	32564	
2657	0	32376	
2658	0	32232	
2659	0	32092	
2660	0	31968	
2661	0	31804	
2662	0	31638	
2663	0	31500	
2664	0	31364	
2665	0	31272	
2666	0	31160	
2667	0	31036	
2668	0	30986	
2669	0	30952	
2670	0	30900	
2671	0	30824	
2672	0	30752	
2673	0	30664	
2674	0	30588	
2675	0	30508	
2676	0	30420	
2677	0	30328	
2678	0	30284	
2679	0	30238	
2680	0	30212	
2681	0	30176	
2682	0	30112	
2683	0	30040	
2684	0	29992	
2685	0	30032	
2686	0	30060	
2687	0	30044	
2688	0	30000	
2689	0	29976	
2690	0	29994	
2691	0	29980	
2692	0	30012	
2693	0	30046	
2694	0	30024	
2695	0	30016	
2696	0	30048	
2697	0	30080	
2698	0	30112	
2699	0	30140	
2700	0	30140	
2701	0	30080	
2702	0	30060	
2703	0	30056	
2704	0	30044	
2705	0	30078	
2706	0	30112	
2707	0	30124	
2708	0	30128	
2709	0	30156	
2710	0	30210	
2711	0	30260	
2712	0	30300	
2713	0	30330	
2714	0	30318	
2715	0	30284	
2716	0	30272	
2717	0	30218	
2718	0	30228	
2719	0	30256	
2720	0	30284	
2721	0	30308	
2722	0	30356	
2723	0	30428	
2724	0	30456	
2725	0	30496	
2726	0	30520	
2727	0	30528	
2728	0	30554	
2729	0	30548	
2730	0	30560	
2731	0	30604	
2732	0	30624	
2733	0	30648	
2734	0	30648	
2735	0	30656	
2736	0	30696	
2737	0	30752	
2738	0	30808	
2739	0	30824	
2740	0	30812	
2741	0	30808	
2742	0	30812	
2743	0	30832	
2744	0	30852	
2745	0	30832	
2746	0	30820	
2747	0	30832	
2748	0	30848	
2749	0	30924	
2750	0	30980	
2751	0	30996	
2752	0	31002	
2753	0	31008	
2754	0	31016	
2755	0	31024	
2756	0	31080	
2757	0	31152	
2758	0	31200	
2759	0	31194	
2760	0	31120	
2761	0	31072	
2762	0	31072	
2763	0	31068	
2764	0	31072	
2765	0	31128	
2766	0	31216	
2767	0	31248	
2768	0	31268	
2769	0	31288	
2770	0	31288	
2771	0	31292	
2772	0	31220	
2773	0	31220	
2774	0	31266	
2775	0	31272	
2776	0	31272	
2777	0	31336	
2778	0	31360	
2779	0	31380	
2780	0	31408	
2781	0	31444	
2782	0	31444	
2783	0	31468	
2784	0	31504	
2785	0	31536	
2786	0	31564	
2787	0	31562	
2788	0	31576	
2789	0	31584	
2790	0	31608	
2791	0	31636	
2792	0	31610	
2793	0	31636	
2794	0	31664	
2795	0	31684	
2796	0	31692	
2797	0	31684	
2798	0	31624	
2799	0	31616	
2800	0	31632	
2801	0	31656	
2802	0	31656	
2803	0	31648	
2804	0	31684	
2805	0	31720	
2806	0	31781	
2807	0	31792	
2808	0	31788	
2809	0	31792	
2810	0	31808	
2811	0	31788	
2812	0	31752	
2813	0	31764	
2814	0	31760	
2815	0	31812	
2816	0	31844	
2817	0	31880	
2818	0	31908	
2819	0	31930	
2820	0	31948	
2821	0	31968	
2822	0	31920	
2823	0	31892	
2824	0	31896	
2825	0	31916	
2826	0	31928	
2827	0	31916	
2828	0	31900	
2829	0	31968	
2830	0	32008	
2831	0	32060	
2832	0	32072	
2833	0	32062	
2834	0	32044	
2835	0	32042	
2836	0	32048	
2837	0	32090	
2838	0	32176	
2839	0	32232	
2840	0	32184	
2841	0	32148	
2842	0	32144	
2843	0	32098	
2844	0	32096	
2845	0	32108	
2846	0	32096	
2847	0	32144	
2848	0	32164	
2849	0	32112	
2850	0	32076	
2851	0	32080	
2852	0	32136	
2853	0	32164	
2854	0	32160	
2855	0	32148	
2856	0	32172	
2857	0	32192	
2858	0	32196	
2859	0	32228	
2860	0	32256	
2861	0	32228	
2862	0	32216	
2863	0	32240	
2864	0	32252	
2865	0	32236	
2866	0	32248	
2867	0	32244	
2868	0	32236	
2869	0	32238	
2870	0	32248	
2871	0	32260	
2872	0	32272	
2873	0	32280	
2874	0	32284	
2875	0	32268	
2876	0	32276	
2877	0	32320	
2878	0	32304	
2879	0	32244	
2880	0	32244	
2881	0	32248	
2882	0	32272	
2883	0	32256	
2884	0	32268	
2885	0	32312	
2886	0	32364	
2887	0	32340	
2888	0	32332	
2889	0	32316	
2890	0	32336	
2891	0	32296	
2892	0	32262	
2893	0	32254	
2894	0	32232	
2895	0	32284	
2896	0	32336	
2897	0	32368	
2898	0	32412	
2899	0	32416	
2900	0	32412	
2901	0	32374	
2902	0	32368	
2903	0	32392	
2904	0	32440	
2905	0	32448	
2906	0	32452	
2907	0	32436	
2908	0	32432	
2909	0	32416	
2910	0	32400	
2911	0	32408	
2912	0	32400	
2913	0	32436	
2914	0	32496	
2915	0	32504	
2916	0	32520	
2917	0	32540	
2918	0	32520	
2919	0	32488	
2920	0	32504	
2921	0	32488	
2922	0	32428	
2923	0	32400	
2924	0	32416	
2925	0	32444	
2926	0	32472	
2927	0	32472	
2928	0	32476	
2929	0	32488	
2930	0	32508	
2931	0	32528	
2932	0	32568	
2933	0	32576	
2934	0	32608	
2935	0	32600	
2936	0	32616	
2937	0	32632	
2938	0	32604	
2939	0	32576	
2940	0	32564	
2941	0	32592	
2942	0	32656	
2943	0	32680	
2944	0	32668	
2945	0	32678	
2946	0	32708	
2947	0	32776	
2948	0	32794	
2949	0	32780	
2950	0	32844	
2951	0	32944	
2952	0	33056	
2953	0	33164	
2954	0	33232	
2955	0	33248	
2956	0	33268	
2957	0	33312	
2958	0	33420	
2959	0	33556	
2960	0	33660	
2961	0	33744	
2962	0	33740	
2963	0	33704	
2964	0	33712	
2965	0	33704	
2966	0	33736	
2967	0	33774	
2968	0	33780	
2969	0	33796	
2970	0	33884	
2971	0	33964	
2972	0	34012	
2973	0	34012	
2974	0	34080	
2975	0	34220	
2976	0	34352	
2977	0	34430	
2978	0	34560	
2979	0	34720	
2980	0	34864	
2981	0	35000	
2982	0	35144	
2983	0	35200	
2984	0	35196	
2985	0	35196	
2986	0	35136	
2987	0	35090	
2988	0	35072	
2989	0	35032	
2990	0	35004	
2991	0	35040	
2992	0	35068	
2993	0	35070	
2994	0	35052	
2995	0	34998	
2996	0	34936	
2997	0	34868	
2998	0	34764	
2999	0	34628	
3000	0	34488	
3001	0	34344	
3002	0	34184	
3003	0	34052	
3004	0	33956	
3005	0	33916	
3006	0	33872	
3007	0	33776	
3008	0	33648	
3009	0	33552	
3010	0	33516	
3011	0	33518	
3012	0	33540	
3013	0	33592	
3014	0	33616	
3015	0	33608	
3016	0	33576	
3017	0	33468	
3018	0	33440	
3019	0	33360	
3020	0	33208	
3021	0	33136	
3022	0	33076	
3023	0	33042	
3024	0	32976	
3025	0	32846	
3026	0	32760	
3027	0	32672	
3028	0	32600	
3029	0	32524	
3030	0	32458	
3031	0	32388	
3032	0	32320	
3033	0	32264	
3034	0	32218	
3035	0	32184	
3036	0	32096	
3037	0	32008	
3038	0	31968	
3039	0	31928	
3040	0	31916	
3041	0	31944	
3042	0	31950	
3043	0	31952	
3044	0	31952	
3045	0	31952	
3046	0	31992	
3047	0	32040	
3048	0	32020	
3049	0	31994	
3050	0	31996	
3051	0	32024	
3052	0	32012	
3053	0	32064	
3054	0	32106	
3055	0	32104	
3056	0	32160	
3057	0	32186	
3058	0	32152	
3059	0	32112	
3060	0	32064	
3061	0	32116	
3062	0	32156	
3063	0	32200	
3064	0	32208	
3065	0	32212	
3066	0	32208	
3067	0	32184	
3068	0	32168	
3069	0	32156	
3070	0	32228	
3071	0	32256	
3072	0	32196	
3073	0	32170	
3074	0	32148	
3075	0	32172	
3076	0	32156	
3077	0	32092	
3078	0	32100	
3079	0	32128	
3080	0	32164	
3081	0	32196	
3082	0	32224	
3083	0	32218	
3084	0	32248	
3085	0	32300	
3086	0	32360	
3087	0	32362	
3088	0	32352	
3089	0	32386	
3090	0	32430	
3091	0	32436	
3092	0	32424	
3093	0	32376	
3094	0	32304	
3095	0	32174	
3096	0	32008	
3097	0	31768	
3098	0	31492	
3099	0	31216	
3100	0	31000	
3101	0	30840	
3102	0	30752	
3103	0	30732	
3104	0	30884	
3105	0	31256	
3106	0	31680	
3107	0	32124	
3108	0	32816	
3109	0	33758	
3110	0	34876	
3111	0	36144	
3112	0	37580	
3113	0	39192	
3114	0	40720	
3115	0	42176	
3116	0	43676	
3117	0	45184	
3118	0	46736	
3119	0	48276	
3120	0	49756	
3121	0	51200	
3122	0	52652	
3123	0	54232	
3124	0	55856	
3125	0	57636	
3126	0	59292	
3127	0	60872	
3128	0	62276	
3129	0	63204	
3130	0	63696	
3131	0	63556	
3132	0	61992	
3133	0	59584	
3134	0	56560	
3135	0	53268	
3136	0	49964	
3137	0	46408	
3138	0	42684	
3139	0	39172	
3140	0	36334	
3141	0	34172	
3142	0	32600	
3143	0	31480	
3144	0	30704	
3145	0	30200	
3146	0	29816	
3147	0	29544	
3148	0	29360	
3149	0	29376	
3150	0	29460	
3151	0	29584	
3152	0	29792	
3153	0	29980	
3154	0	30144	
3155	0	30234	
3156	0	30310	
3157	0	30404	
3158	0	30492	
3159	0	30504	
3160	0	30472	
3161	0	30348	
3162	0	30238	
3163	0	30084	
3164	0	29940	
3165	0	29860	
3166	0	29788	
3167	0	29760	
3168	0	29680	
3169	0	29612	
3170	0	29556	
3171	0	29556	
3172	0	29516	
3173	0	29468	
3174	0	29408	
3175	0	29374	
3176	0	29348	
3177	0	29328	
3178	0	29268	
3179	0	29240	
3180	0	29276	
3181	0	29326	
3182	0	29348	
3183	0	29368	
3184	0	29424	
3185	0	29472	
3186	0	29464	
3187	0	29472	
3188	0	29484	
3189	0	29440	
3190	0	29448	
3191	0	29468	
3192	0	29548	
3193	0	29618	
3194	0	29648	
3195	0	29632	
3196	0	29660	
3197	0	29712	
3198	0	29724	
3199	0	29760	
3200	0	29764	
3201	0	29762	
3202	0	29774	
3203	0	29828	
3204	0	29892	
3205	0	29950	
3206	0	29908	
3207	0	29948	
3208	0	30016	
3209	0	30076	
3210	0	30112	
3211	0	30084	
3212	0	30084	
3213	0	30112	
3214	0	30152	
3215	0	30160	
3216	0	30200	
3217	0	30276	
3218	0	30340	
3219	0	30364	
3220	0	30376	
3221	0	30368	
3222	0	30380	
3223	0	30410	
3224	0	30472	
3225	0	30460	
3226	0	30472	
3227	0	30500	
3228	0	30528	
3229	0	30592	
3230	0	30640	
3231	0	30664	
3232	0	30688	
3233	0	30752	
3234	0	30784	
3235	0	30840	
3236	0	30936	
3237	0	31032	
3238	0	31100	
3239	0	31104	
3240	0	31096	
3241	0	31160	
3242	0	31200	
3243	0	31244	
3244	0	31252	
3245	0	31224	
3246	0	31228	
3247	0	31240	
3248	0	31256	
3249	0	31276	
3250	0	31340	
3251	0	31384	
3252	0	31436	
3253	0	31524	
3254	0	31560	
3255	0	31536	
3256	0	31560	
3257	0	31596	
3258	0	31592	
3259	0	31612	
3260	0	31660	
3261	0	31728	
3262	0	31754	
3263	0	31800	
3264	0	31856	
3265	0	31904	
3266	0	31952	
3267	0	31946	
3268	0	31968	
3269	0	31976	
3270	0	31980	
3271	0	32028	
3272	0	32116	
3273	0	32188	
3274	0	32202	
3275	0	32224	
3276	0	32296	
3277	0	32328	
3278	0	32372	
3279	0	32386	
3280	0	32416	
3281	0	32496	
3282	0	32544	
3283	0	32564	
3284	0	32588	
3285	0	32652	
3286	0	32724	
3287	0	32788	
3288	0	32840	
3289	0	32936	
3290	0	32972	
3291	0	32988	
3292	0	33048	
3293	0	33056	
3294	0	33058	
3295	0	33074	
3296	0	33158	
3297	0	33224	
3298	0	33284	
3299	0	33300	
3300	0	33324	
3301	0	33448	
3302	0	33568	
3303	0	33668	
3304	0	33716	
3305	0	33748	
3306	0	33808	
3307	0	33832	
3308	0	33848	
3309	0	33876	
3310	0	33952	
3311	0	34020	
3312	0	34078	
3313	0	34124	
3314	0	34180	
3315	0	34232	
3316	0	34308	
3317	0	34372	
3318	0	34456	
3319	0	34516	
3320	0	34608	
3321	0	34688	
3322	0	34744	
3323	0	34808	
3324	0	34868	
3325	0	34928	
3326	0	34976	
3327	0	35048	
3328	0	35140	
3329	0	35224	
3330	0	35328	
3331	0	35428	
3332	0	35560	
3333	0	35656	
3334	0	35668	
3335	0	35736	
3336	0	35840	
3337	0	35928	
3338	0	35952	
3339	0	36020	
3340	0	36152	
3341	0	36248	
3342	0	36332	
3343	0	36384	
3344	0	36420	
3345	0	36492	
3346	0	36536	
3347	0	36584	
3348	0	36608	
3349	0	36640	
3350	0	36720	
3351	0	36784	
3352	0	36832	
3353	0	36820	
3354	0	36874	
3355	0	36916	
3356	0	36888	
3357	0	36864	
3358	0	36880	
3359	0	36932	
3360	0	36996	
3361	0	36996	
3362	0	37010	
3363	0	37088	
3364	0	37160	
3365	0	37150	
3366	0	37124	
3367	0	37136	
3368	0	37116	
3369	0	37112	
3370	0	37120	
3371	0	37160	
3372	0	37116	
3373	0	37024	
3374	0	36964	
3375	0	36900	
3376	0	36836	
3377	0	36656	
3378	0	36448	
3379	0	36316	
3380	0	36232	
3381	0	36092	
3382	0	35892	
3383	0	35736	
3384	0	35602	
3385	0	35444	
3386	0	35234	
3387	0	35056	
3388	0	34872	
3389	0	34688	
3390	0	34496	
3391	0	34320	
3392	0	34152	
3393	0	34000	
3394	0	33824	
3395	0	33608	
3396	0	33452	
3397	0	33308	
3398	0	33164	
3399	0	33006	
3400	0	32844	
3401	0	32700	
3402	0	32528	
3403	0	32288	
3404	0	32134	
3405	0	31996	
3406	0	31832	
3407	0	31700	
3408	0	31560	
3409	0	31426	
3410	0	31332	
3411	0	31208	
3412	0	31056	
3413	0	30916	
3414	0	30792	
3415	0	30708	
3416	0	30632	
3417	0	30552	
3418	0	30498	
3419	0	30432	
3420	0	30332	
3421	0	30286	
3422	0	30248	
3423	0	30164	
3424	0	30042	
3425	0	29980	
3426	0	29932	
3427	0	29856	
3428	0	29864	
3429	0	29880	
3430	0	29940	
3431	0	29904	
3432	0	29824	
3433	0	29782	
3434	0	29776	
3435	0	29788	
3436	0	29760	
3437	0	29756	
3438	0	29728	
3439	0	29700	
3440	0	29672	
3441	0	29676	
3442	0	29716	
3443	0	29732	
3444	0	29702	
3445	0	29732	
3446	0	29742	
3447	0	29760	
3448	0	29756	
3449	0	29732	
3450	0	29776	
3451	0	29844	
3452	0	29896	
3453	0	29954	
3454	0	29956	
3455	0	29988	
3456	0	30008	
3457	0	29982	
3458	0	29936	
3459	0	29944	
3460	0	29990	
3461	0	30000	
3462	0	30004	
3463	0	30032	
3464	0	30048	
3465	0	30084	
3466	0	30068	
3467	0	30104	
3468	0	30128	
3469	0	30126	
3470	0	30140	
3471	0	30208	
3472	0	30212	
3473	0	30200	
3474	0	30220	
3475	0	30276	
3476	0	30292	
3477	0	30280	
3478	0	30316	
3479	0	30332	
3480	0	30368	
3481	0	30412	
3482	0	30464	
3483	0	30528	
3484	0	30548	
3485	0	30504	
3486	0	30468	
3487	0	30448	
3488	0	30464	
3489	0	30496	
3490	0	30540	
3491	0	30584	
3492	0	30596	
3493	0	30616	
3494	0	30620	
3495	0	30620	
3496	0	30632	
3497	0	30728	
3498	0	30780	
3499	0	30746	
3500	0	30732	
3501	0	30752	
3502	0	30804	
3503	0	30856	
3504	0	30880	
3505	0	30928	
3506	0	30932	
3507	0	30900	
3508	0	30904	
3509	0	30892	
3510	0	30864	
3511	0	30828	
3512	0	30852	
3513	0	30928	
3514	0	30984	
3515	0	30974	
3516	0	30992	
3517	0	31004	
3518	0	31044	
3519	0	31104	
3520	0	31148	
3521	0	31200	
3522	0	31184	
3523	0	31192	
3524	0	31212	
3525	0	31216	
3526	0	31232	
3527	0	31224	
3528	0	31204	
3529	0	31204	
3530	0	31200	
3531	0	31244	
3532	0	31264	
3533	0	31296	
3534	0	31312	
3535	0	31288	
3536	0	31264	
3537	0	31294	
3538	0	31360	
3539	0	31374	
3540	0	31368	
3541	0	31396	
3542	0	31456	
3543	0	31496	
3544	0	31504	
3545	0	31540	
3546	0	31592	
3547	0	31576	
3548	0	31544	
3549	0	31524	
3550	0	31548	
3551	0	31552	
3552	0	31598	
3553	0	31644	
3554	0	31652	
3555	0	31648	
3556	0	31628	
3557	0	31604	
3558	0	31582	
3559	0	31548	
3560	0	31546	
3561	0	31552	
3562	0	31600	
3563	0	31632	
3564	0	31656	
3565	0	31700	
3566	0	31752	
3567	0	31764	
3568	0	31722	
3569	0	31722	
3570	0	31696	
3571	0	31656	
3572	0	31672	
3573	0	31724	
3574	0	31744	
3575	0	31812	
3576	0	31864	
3577	0	31848	
3578	0	31852	
3579	0	31868	
3580	0	31868	
3581	0	31888	
3582	0	31896	
3583	0	31904	
3584	0	31912	
3585	0	31902	
3586	0	31924	
3587	0	31940	
3588	0	31964	
3589	0	31952	
3590	0	31916	
3591	0	31892	
3592	0	31916	
3593	0	31920	
3594	0	31920	
3595	0	31952	
3596	0	31992	
3597	0	32024	
3598	0	32044	
3599	0	32084	
3600	0	32100	
3601	0	32040	
3602	0	31960	
3603	0	31920	
3604	0	31936	
3605	0	31968	
3606	0	31982	
3607	0	31984	
3608	0	31968	
3609	0	31988	
3610	0	32020	
3611	0	32034	
3612	0	32040	
3613	0	32048	
3614	0	32052	
3615	0	32076	
3616	0	32088	
3617	0	32096	
3618	0	32064	
3619	0	32042	
3620	0	32064	
3621	0	32116	
3622	0	32150	
3623	0	32160	
3624	0	32176	
3625	0	32196	
3626	0	32180	
3627	0	32172	
3628	0	32176	
3629	0	32136	
3630	0	32096	
3631	0	32052	
3632	0	32032	
3633	0	32064	
3634	0	32084	
3635	0	32120	
3636	0	32200	
3637	0	32252	
3638	0	32230	
3639	0	32204	
3640	0	32196	
3641	0	32186	
3642	0	32184	
3643	0	32192	
3644	0	32168	
3645	0	32168	
3646	0	32168	
3647	0	32170	
3648	0	32220	
3649	0	32196	
3650	0	32180	
3651	0	32200	
3652	0	32244	
3653	0	32280	
3654	0	32296	
3655	0	32272	
3656	0	32224	
3657	0	32208	
3658	0	32220	
3659	0	32244	
3660	0	32308	
3661	0	32288	
3662	0	32308	
3663	0	32336	
3664	0	32280	
3665	0	32224	
3666	0	32248	
3667	0	32272	
3668	0	32298	
3669	0	32340	
3670	0	32364	
3671	0	32396	
3672	0	32360	
3673	0	32332	
3674	0	32352	
3675	0	32384	
3676	0	32388	
3677	0	32392	
3678	0	32404	
3679	0	32372	
3680	0	32388	
3681	0	32380	
3682	0	32346	
3683	0	32336	
3684	0	32352	
3685	0	32408	
3686	0	32456	
3687	0	32466	
3688	0	32478	
3689	0	32544	
3690	0	32520	
3691	0	32434	
3692	0	32392	
3693	0	32388	
3694	0	32400	
3695	0	32404	
3696	0	32424	
3697	0	32504	
3698	0	32564	
3699	0	32556	
3700	0	32580	
3701	0	32602	
3702	0	32634	
3703	0	32664	
3704	0	32664	
3705	0	32604	
3706	0	32576	
3707	0	32588	
3708	0	32632	
3709	0	32680	
3710	0	32788	
3711	0	32864	
3712	0	32932	
3713	0	33040	
3714	0	33160	
3715	0	33312	
3716	0	33436	
3717	0	33456	
3718	0	33432	
3719	0	33418	
3720	0	33424	
3721	0	33468	
3722	0	33580	
3723	0	33644	
3724	0	33680	
3725	0	33732	
3726	0	33728	
3727	0	33732	
3728	0	33746	
3729	0	33788	
3730	0	33792	
3731	0	33808	
3732	0	33868	
3733	0	33876	
3734	0	33916	
3735	0	33952	
3736	0	34034	
3737	0	34184	
3738	0	34280	
3739	0	34350	
3740	0	34508	
3741	0	34692	
3742	0	34824	
3743	0	34912	
3744	0	34980	
3745	0	35008	
3746	0	34960	
3747	0	34956	
3748	0	34988	
3749	0	34968	
3750	0	34980	
3751	0	34976	
3752	0	35006	
3753	0	35064	
3754	0	35106	
3755	0	35076	
3756	0	34996	
3757	0	34922	
3758	0	34892	
3759	0	34780	
3760	0	34628	
3761	0	34464	
3762	0	34328	
3763	0	34200	
3764	0	34076	
3765	0	33984	
3766	0	33924	
3767	0	33852	
3768	0	33780	
3769	0	33692	
3770	0	33620	
3771	0	33546	
3772	0	33472	
3773	0	33468	
3774	0	33484	
3775	0	33492	
3776	0	33472	
3777	0	33428	
3778	0	33364	
3779	0	33242	
3780	0	33120	
3781	0	33076	
3782	0	33044	
3783	0	33016	
3784	0	33000	
3785	0	32960	
3786	0	32872	
3787	0	32800	
3788	0	32704	
3789	0	32584	
3790	0	32492	
3791	0	32460	
3792	0	32408	
3793	0	32353	
3794	0	32320	
3795	0	32260	
3796	0	32176	
3797	0	32092	
3798	0	32026	
3799	0	31988	
3800	0	32012	
3801	0	32064	
3802	0	32168	
3803	0	32248	
3804	0	32250	
3805	0	32220	
3806	0	32192	
3807	0	32160	
3808	0	32136	
3809	0	32106	
3810	0	32040	
3811	0	32032	
3812	0	32032	
3813	0	32044	
3814	0	32072	
3815	0	32096	
3816	0	32056	
3817	0	32064	
3818	0	32088	
3819	0	32120	
3820	0	32084	
3821	0	32028	
3822	0	31992	
3823	0	32036	
3824	0	32068	
3825	0	32108	
3826	0	32132	
3827	0	32164	
3828	0	32184	
3829	0	32160	
3830	0	32140	
3831	0	32112	
3832	0	32112	
3833	0	32140	
3834	0	32168	
3835	0	32200	
3836	0	32224	
3837	0	32256	
3838	0	32296	
3839	0	32288	
3840	0	32260	
3841	0	32276	
3842	0	32280	
3843	0	32280	
3844	0	32284	
3845	0	32320	
3846	0	32352	
3847	0	32356	
3848	0	32376	
3849	0	32400	
3850	0	32408	
3851	0	32440	
3852	0	32436	
3853	0	32388	
3854	0	32280	
3855	0	32164	
3856	0	32028	
3857	0	31856	
3858	0	31656	
3859	0	31384	
3860	0	31112	
3861	0	30928	
3862	0	30772	
3863	0	30680	
3864	0	30640	
3865	0	30748	
3866	0	31064	
3867	0	31536	
3868	0	32120	
3869	0	32868	
3870	0	33862	
3871	0	35008	
3872	0	36256	
3873	0	37672	
3874	0	39200	
3875	0	40684	
3876	0	42120	
3877	0	43592	
3878	0	45056	
3879	0	46544	
3880	0	48056	
3881	0	49536	
3882	0	50972	
3883	0	52476	
3884	0	54100	
3885	0	55800	
3886	0	57528	
3887	0	59212	
3888	0	60788	
3889	0	62148	
3890	0	63040	
3891	0	63484	
3892	0	63596	
3893	0	61984	
3894	0	59588	
3895	0	56544	
3896	0	53264	
3897	0	49936	
3898	0	46400	
3899	0	42676	
3900	0	39200	
3901	0	36420	
3902	0	34298	
3903	0	32716	
3904	0	31578	
3905	0	30712	
3906	0	30144	
3907	0	29728	
3908	0	29416	
3909	0	29306	
3910	0	29312	
3911	0	29404	
3912	0	29536	
3913	0	29724	
3914	0	29916	
3915	0	30040	
3916	0	30164	
3917	0	30228	
3918	0	30300	
3919	0	30364	
3920	0	30352	
3921	0	30260	
3922	0	30152	
3923	0	30046	
3924	0	29984	
3925	0	29936	
3926	0	29886	
3927	0	29800	
3928	0	29672	
3929	0	29544	
3930	0	29408	
3931	0	29344	
3932	0	29316	
3933	0	29300	
3934	0	29240	
3935	0	29200	
3936	0	29162	
3937	0	29132	
3938	0	29080	
3939	0	29080	
3940	0	29084	
3941	0	29088	
3942	0	29100	
3943	0	29124	
3944	0	29224	
3945	0	29260	
3946	0	29260	
3947	0	29268	
3948	0	29328	
3949	0	29392	
3950	0	29424	
3951	0	29440	
3952	0	29440	
3953	0	29452	
3954	0	29444	
3955	0	29480	
3956	0	29496	
3957	0	29536	
3958	0	29604	
3959	0	29616	
3960	0	29636	
3961	0	29664	
3962	0	29652	
3963	0	29644	
3964	0	29636	
3965	0	29688	
3966	0	29760	
3967	0	29788	
3968	0	29780	
3969	0	29804	
3970	0	29868	
3971	0	29928	
3972	0	30040	
3973	0	30146	
3974	0	30216	
3975	0	30236	
3976	0	30232	
3977	0	30244	
3978	0	30266	
3979	0	30240	
3980	0	30264	
3981	0	30340	
3982	0	30436	
3983	0	30450	
3984	0	30396	
3985	0	30412	
3986	0	30452	
3987	0	30472	
3988	0	30522	
3989	0	30586	
3990	0	30662	
3991	0	30748	
3992	0	30812	
3993	0	30846	
3994	0	30852	
3995	0	30848	
3996	0	30852	
3997	0	30844	
3998	0	30828	
3999	0	30864	
4000	0	30912	
4001	0	30956	
4002	0	31002	
4003	0	31056	
4004	0	31092	
4005	0	31108	
4006	0	31132	
4007	0	31184	
4008	0	31212	
4009	0	31240	
4010	0	31276	
4011	0	31312	
4012	0	31348	
4013	0	31360	
4014	0	31362	
4015	0	31392	
4016	0	31436	
4017	0	31472	
4018	0	31484	
4019	0	31528	
4020	0	31564	
4021	0	31612	
4022	0	31664	
4023	0	31740	
4024	0	31784	
4025	0	31800	
4026	0	31860	
4027	0	31896	
4028	0	31924	
4029	0	31952	
4030	0	31968	
4031	0	32024	
4032	0	32096	
4033	0	32184	
4034	0	32256	
4035	0	32277	
4036	0	32312	
4037	0	32340	
4038	0	32374	
4039	0	32416	
4040	0	32466	
4041	0	32532	
4042	0	32556	
4043	0	32596	
4044	0	32636	
4045	0	32656	
4046	0	32712	
4047	0	32812	
4048	0	32888	
4049	0	32932	
4050	0	32924	
4051	0	32936	
4052	0	32992	
4053	0	33016	
4054	0	33072	
4055	0	33132	
4056	0	33216	
4057	0	33264	
4058	0	33284	
4059	0	33306	
4060	0	33320	
4061	0	33340	
4062	0	33396	
4063	0	33472	
4064	0	33496	
4065	0	33568	
4066	0	33668	
4067	0	33752	
4068	0	33832	
4069	0	33900	
4070	0	33984	
4071	0	34040	
4072	0	34100	
4073	0	34178	
4074	0	34256	
4075	0	34348	
4076	0	34416	
4077	0	34444	
4078	0	34500	
4079	0	34584	
4080	0	34620	
4081	0	34672	
4082	0	34754	
4083	0	34816	
4084	0	34842	
4085	0	34914	
4086	0	35012	
4087	0	35076	
4088	0	35120	
4089	0	35208	
4090	0	35296	
4091	0	35340	
4092	0	35360	
4093	0	35392	
4094	0	35540	
4095	0	35692	
4096	0	35776	
4097	0	35836	
4098	0	35928	
4099	0	36036	
4100	0	36136	
4101	0	36180	
4102	0	36244	
4103	0	36328	
4104	0	36400	
4105	0	36464	
4106	0	36498	
4107	0	36596	
4108	0	36668	
4109	0	36672	
4110	0	36740	
4111	0	36842	
4112	0	36868	
4113	0	36848	
4114	0	36912	
4115	0	36956	
4116	0	36988	
4117	0	36972	
4118	0	36968	
4119	0	36988	
4120	0	37048	
4121	0	37112	
4122	0	37120	
4123	0	37068	
4124	0	37096	
4125	0	37130	
4126	0	37112	
4127	0	37108	
4128	0	37088	
4129	0	37064	
4130	0	37064	
4131	0	37080	
4132	0	37072	
4133	0	37072	
4134	0	37056	
4135	0	37012	
4136	0	36920	
4137	0	36768	
4138	0	36656	
4139	0	36556	
4140	0	36440	
4141	0	36320	
4142	0	36208	
4143	0	36064	
4144	0	35928	
4145	0	35744	
4146	0	35528	
4147	0	35328	
4148	0	35188	
4149	0	35048	
4150	0	34884	
4151	0	34720	
4152	0	34528	
4153	0	34328	
4154	0	34128	
4155	0	33932	
4156	0	33724	
4157	0	33530	
4158	0	33376	
4159	0	33226	
4160	0	33022	
4161	0	32832	
4162	0	32658	
4163	0	32516	
4164	0	32404	
4165	0	32256	
4166	0	32112	
4167	0	31936	
4168	0	31744	
4169	0	31620	
4170	0	31520	
4171	0	31372	
4172	0	31208	
4173	0	31092	
4174	0	30988	
4175	0	30904	
4176	0	30800	
4177	0	30720	
4178	0	30652	
4179	0	30600	
4180	0	30544	
4181	0	30504	
4182	0	30508	
4183	0	30496	
4184	0	30408	
4185	0	30272	
4186	0	30176	
4187	0	30132	
4188	0	30072	
4189	0	30032	
4190	0	29976	
4191	0	29940	
4192	0	29906	
4193	0	29892	
4194	0	29800	
4195	0	29712	
4196	0	29656	
4197	0	29712	
4198	0	29764	
4199	0	29780	
4200	0	29776	
4201	0	29772	
4202	0	29800	
4203	0	29844	
4204	0	29912	
4205	0	29936	
4206	0	29956	
4207	0	29960	
4208	0	29948	
4209	0	29944	
4210	0	29908	
4211	0	29828	
4212	0	29800	
4213	0	29800	
4214	0	29838	
4215	0	29856	
4216	0	29872	
4217	0	29900	
4218	0	29928	
4219	0	29980	
4220	0	30048	
4221	0	30070	
4222	0	30088	
4223	0	30084	
4224	0	30040	
4225	0	29996	
4226	0	30012	
4227	0	30092	
4228	0	30144	
4229	0	30164	
4230	0	30236	
4231	0	30284	
4232	0	30296	
4233	0	30236	
4234	0	30232	
4235	0	30276	
4236	0	30352	
4237	0	30378	
4238	0	30396	
4239	0	30402	
4240	0	30442	
4241	0	30436	
4242	0	30448	
4243	0	30464	
4244	0	30430	
4245	0	30462	
4246	0	30504	
4247	0	30544	
4248	0	30614	
4249	0	30684	
4250	0	30696	
4251	0	30704	
4252	0	30688	
4253	0	30708	
4254	0	30720	
4255	0	30728	
4256	0	30718	
4257	0	30708	
4258	0	30716	
4259	0	30768	
4260	0	30828	
4261	0	30844	
4262	0	30870	
4263	0	30890	
4264	0	30878	
4265	0	30884	
4266	0	30892	
4267	0	30944	
4268	0	31024	
4269	0	31056	
4270	0	31084	
4271	0	31112	
4272	0	31140	
4273	0	31152	
4274	0	31132	
4275	0	31124	
4276	0	31144	
4277	0	31196	
4278	0	31212	
4279	0	31168	
4280	0	31110	
4281	0	31120	
4282	0	31184	
4283	0	31226	
4284	0	31196	
4285	0	31148	
4286	0	31150	
4287	0	31144	
4288	0	31220	
4289	0	31298	
4290	0	31300	
4291	0	31300	
4292	0	31342	
4293	0	31416	
4294	0	31452	
4295	0	31456	
4296	0	31460	
4297	0	31468	
4298	0	31460	
4299	0	31432	
4300	0	31402	
4301	0	31388	
4302	0	31408	
4303	0	31428	
4304	0	31454	
4305	0	31456	
4306	0	31488	
4307	0	31500	
4308	0	31514	
4309	0	31520	
4310	0	31536	
4311	0	31616	
4312	0	31676	
4313	0	31692	
4314	0	31708	
4315	0	31712	
4316	0	31728	
4317	0	31728	
4318	0	31696	
4319	0	31668	
4320	0	31628	
4321	0	31588	
4322	0	31604	
4323	0	31598	
4324	0	31620	
4325	0	31688	
4326	0	31760	
4327	0	31792	
4328	0	31836	
4329	0	31932	
4330	0	31956	
4331	0	31944	
4332	0	31876	
4333	0	31844	
4334	0	31812	
4335	0	31820	
4336	0	31824	
4337	0	31824	
4338	0	31848	
4339	0	31844	
4340	0	31824	
4341	0	31852	
4342	0	31848	
4343	0	31860	
4344	0	31864	
4345	0	31872	
4346	0	31892	
4347	0	31904	
4348	0	31904	
4349	0	31912	
4350	0	31912	
4351	0	31884	
4352	0	31924	
4353	0	31972	
4354	0	32008	
4355	0	32010	
4356	0	32006	
4357	0	32016	
4358	0	31968	
4359	0	31980	
4360	0	32046	
4361	0	32072	
4362	0	32092	
4363	0	32068	
4364	0	32052	
4365	0	31980	
4366	0	31928	
4367	0	31952	
4368	0	31976	
4369	0	31988	
4370	0	32020	
4371	0	32036	
4372	0	32034	
4373	0	32040	
4374	0	32032	
4375	0	31984	
4376	0	31960	
4377	0	31984	
4378	0	32024	
4379	0	32028	
4380	0	32020	
4381	0	32032	
4382	0	32076	
4383	0	32096	
4384	0	32124	
4385	0	32128	
4386	0	32096	
4387	0	32096	
4388	0	32096	
4389	0	32060	
4390	0	32060	
4391	0	32058	
4392	0	32072	
4393	0	32096	
4394	0	32116	
4395	0	32144	
4396	0	32136	
4397	0	32088	
4398	0	32074	
4399	0	32096	
4400	0	32128	
4401	0	32168	
4402	0	32192	
4403	0	32228	
4404	0	32284	
4405	0	32312	
4406	0	32320	
4407	0	32324	
4408	0	32320	
4409	0	32304	
4410	0	32296	
4411	0	32256	
4412	0	32256	
4413	0	32256	
4414	0	32288	
4415	0	32312	
4416	0	32294	
4417	0	32276	
4418	0	32292	
4419	0	32288	
4420	0	32238	
4421	0	32272	
4422	0	32274	
4423	0	32236	
4424	0	32224	
4425	0	32212	
4426	0	32192	
4427	0	32212	
4428	0	32210	
4429	0	32224	
4430	0	32276	
4431	0	32320	
4432	0	32316	
4433	0	32300	
4434	0	32320	
4435	0	32336	
4436	0	32344	
4437	0	32372	
4438	0	32380	
4439	0	32392	
4440	0	32378	
4441	0	32372	
4442	0	32356	
4443	0	32384	
4444	0	32432	
4445	0	32444	
4446	0	32420	
4447	0	32432	
4448	0	32450	
4449	0	32452	
4450	0	32468	
4451	0	32512	
4452	0	32496	
4453	0	32488	
4454	0	32488	
4455	0	32500	
4456	0	32504	
4457	0	32520	
4458	0	32512	
4459	0	32560	
4460	0	32596	
4461	0	32642	
4462	0	32652	
4463	0	32652	
4464	0	32626	
4465	0	32568	
4466	0	32504	
4467	0	32532	
4468	0	32590	
4469	0	32640	
4470	0	32640	
4471	0	32636	
4472	0	32640	
4473	0	32628	
4474	0	32584	
4475	0	32584	
4476	0	32656	
4477	0	32728	
4478	0	32794	
4479	0	32832	
4480	0	32924	
4481	0	33080	
4482	0	33228	
4483	0	33324	
4484	0	33380	
4485	0	33380	
4486	0	33400	
4487	0	33456	
4488	0	33516	
4489	0	33496	
4490	0	33518	
4491	0	33530	
4492	0	33552	
4493	0	33596	
4494	0	33628	
4495	0	33672	
4496	0	33684	
4497	0	33730	
4498	0	33802	
4499	0	33872	
4500	0	33932	
4501	0	34000	
4502	0	34048	
4503	0	34144	
4504	0	34264	
4505	0	34380	
4506	0	34520	
4507	0	34616	
4508	0	34744	
4509	0	34884	
4510	0	35002	
4511	0	35050	
4512	0	35024	
4513	0	34988	
4514	0	34948	
4515	0	34920	
4516	0	34920	
4517	0	34928	
4518	0	34944	
4519	0	34980	
4520	0	34994	
4521	0	34956	
4522	0	34940	
4523	0	34948	
4524	0	34892	
4525	0	34784	
4526	0	34584	
4527	0	34392	
4528	0	34228	
4529	0	34048	
4530	0	33864	
4531	0	33792	
4532	0	33796	
4533	0	33792	
4534	0	33756	
4535	0	33680	
4536	0	33600	
4537	0	33540	
4538	0	33488	
4539	0	33512	
4540	0	33552	
4541	0	33548	
4542	0	33520	
4543	0	33488	
4544	0	33456	
4545	0	33408	
4546	0	33292	
4547	0	33198	
4548	0	33104	
4549	0	33028	
4550	0	32992	
4551	0	32928	
4552	0	32824	
4553	0	32684	
4554	0	32570	
4555	0	32456	
4556	0	32384	
4557	0	32304	
4558	0	32216	
4559	0	32132	
4560	0	32096	
4561	0	32060	
4562	0	32052	
4563	0	32012	
4564	0	32004	
4565	0	31980	
4566	0	31954	
4567	0	31962	
4568	0	31964	
4569	0	31982	
4570	0	32016	
4571	0	32076	
4572	0	32088	
4573	0	32092	
4574	0	32058	
4575	0	32044	
4576	0	32004	
4577	0	32008	
4578	0	32024	
4579	0	32028	
4580	0	32020	
4581	0	32034	
4582	0	32058	
4583	0	32084	
4584	0	32100	
4585	0	32096	
4586	0	32100	
4587	0	32100	
4588	0	32072	
4589	0	32048	
4590	0	32050	
4591	0	32052	
4592	0	32044	
4593	0	32012	
4594	0	32004	
4595	0	32040	
4596	0	32072	
4597	0	32084	
4598	0	32104	
4599	0	32116	
4600	0	32124	
4601	0	32096	
4602	0	32080	
4603	0	32072	
4604	0	32092	
4605	0	32124	
4606	0	32168	
4607	0	32152	
4608	0	32176	
4609	0	32192	
4610	0	32208	
4611	0	32172	
4612	0	32192	
4613	0	32236	
4614	0	32312	
4615	0	32396	
4616	0	32436	
4617	0	32432	
4618	0	32428	
4619	0	32420	
4620	0	32304	
4621	0	32160	
4622	0	32026	
4623	0	31800	
4624	0	31548	
4625	0	31272	
4626	0	30996	
4627	0	30852	
4628	0	30732	
4629	0	30644	
4630	0	30586	
4631	0	30736	
4632	0	31092	
4633	0	31548	
4634	0	32132	
4635	0	32934	
4636	0	33896	
4637	0	35028	
4638	0	36344	
4639	0	37828	
4640	0	39344	
4641	0	40832	
4642	0	42316	
4643	0	43820	
4644	0	45304	
4645	0	46832	
4646	0	48288	
4647	0	49712	
4648	0	51112	
4649	0	52604	
4650	0	54168	
4651	0	55852	
4652	0	57532	
4653	0	59112	
4654	0	60604	
4655	0	61840	
4656	0	62712	
4657	0	62960	
4658	0	62116	
4659	0	60292	
4660	0	57628	
4661	0	54504	
4662	0	51252	
4663	0	47852	
4664	0	44216	
4665	0	40584	
4666	0	37448	
4667	0	34988	
4668	0	33162	
4669	0	31916	
4670	0	31044	
4671	0	30454	
4672	0	30044	
4673	0	29708	
4674	0	29472	
4675	0	29392	
4676	0	29420	
4677	0	29556	
4678	0	29796	
4679	0	30008	
4680	0	30188	
4681	0	30336	
4682	0	30428	
4683	0	30488	
4684	0	30528	
4685	0	30528	
4686	0	30460	
4687	0	30320	
4688	0	30188	
4689	0	30054	
4690	0	29932	
4691	0	29852	
4692	0	29792	
4693	0	29714	
4694	0	29670	
4695	0	29618	
4696	0	29556	
4697	0	29512	
4698	0	29436	
4699	0	29360	
4700	0	29304	
4701	0	29272	
4702	0	29264	
4703	0	29268	
4704	0	29268	
4705	0	29256	
4706	0	29264	
4707	0	29324	
4708	0	29388	
4709	0	29416	
4710	0	29428	
4711	0	29448	
4712	0	29444	
4713	0	29468	
4714	0	29504	
4715	0	29508	
4716	0	29504	
4717	0	29496	
4718	0	29508	
4719	0	29560	
4720	0	29560	
4721	0	29572	
4722	0	29620	
4723	0	29664	
4724	0	29704	
4725	0	29714	
4726	0	29744	
4727	0	29828	
4728	0	29854	
4729	0	29844	
4730	0	29816	
4731	0	29832	
4732	0	29828	
4733	0	29812	
4734	0	29848	
4735	0	29900	
4736	0	29956	
4737	0	30018	
4738	0	30048	
4739	0	30068	
4740	0	30088	
4741	0	30088	
4742	0	30088	
4743	0	30124	
4744	0	30160	
4745	0	30196	
4746	0	30252	
4747	0	30272	
4748	0	30272	
4749	0	30336	
4750	0	30398	
4751	0	30476	
4752	0	30584	
4753	0	30656	
4754	0	30664	
4755	0	30676	
4756	0	30692	
4757	0	30712	
4758	0	30752	
4759	0	30788	
4760	0	30804	
4761	0	30792	
4762	0	30784	
4763	0	30816	
4764	0	30872	
4765	0	30920	
4766	0	30960	
4767	0	30992	
4768	0	31050	
4769	0	31136	
4770	0	31188	
4771	0	31240	
4772	0	31240	
4773	0	31256	
4774	0	31256	
4775	0	31284	
4776	0	31312	
4777	0	31348	
4778	0	31384	
4779	0	31428	
4780	0	31492	
4781	0	31560	
4782	0	31604	
4783	0	31656	
4784	0	31660	
4785	0	31664	
4786	0	31704	
4787	0	31704	
4788	0	31728	
4789	0	31744	
4790	0	31732	
4791	0	31752	
4792	0	31808	
4793	0	31842	
4794	0	31864	
4795	0	31892	
4796	0	31920	
4797	0	31956	
4798	0	32010	
4799	0	32080	
4800	0	32148	
4801	0	32216	
4802	0	32280	
4803	0	32306	
4804	0	32328	
4805	0	32376	
4806	0	32440	
4807	0	32534	
4808	0	32568	
4809	0	32624	
4810	0	32644	
4811	0	32672	
4812	0	32724	
4813	0	32768	
4814	0	32816	
4815	0	32884	
4816	0	32924	
4817	0	32972	
4818	0	32984	
4819	0	33008	
4820	0	33098	
4821	0	33172	
4822	0	33216	
4823	0	33216	
4824	0	33248	
4825	0	33320	
4826	0	33372	
4827	0	33420	
4828	0	33488	
4829	0	33552	
4830	0	33604	
4831	0	33692	
4832	0	33728	
4833	0	33744	
4834	0	33792	
4835	0	33844	
4836	0	33900	
4837	0	33980	
4838	0	34028	
4839	0	34112	
4840	0	34200	
4841	0	34288	
4842	0	34340	
4843	0	34392	
4844	0	34488	
4845	0	34552	
4846	0	34634	
4847	0	34724	
4848	0	34808	
4849	0	34848	
4850	0	34894	
4851	0	34960	
4852	0	35040	
4853	0	35100	
4854	0	35164	
4855	0	35244	
4856	0	35346	
4857	0	35456	
4858	0	35554	
4859	0	35656	
4860	0	35744	
4861	0	35804	
4862	0	35872	
4863	0	35936	
4864	0	35976	
4865	0	36048	
4866	0	36152	
4867	0	36204	
4868	0	36272	
4869	0	36370	
4870	0	36448	
4871	0	36480	
4872	0	36502	
4873	0	36552	
4874	0	36572	
4875	0	36588	
4876	0	36618	
4877	0	36680	
4878	0	36728	
4879	0	36762	
4880	0	36824	
4881	0	36896	
4882	0	36928	
4883	0	36932	
4884	0	36960	
4885	0	37008	
4886	0	37104	
4887	0	37164	
4888	0	37212	
4889	0	37280	
4890	0	37332	
4891	0	37352	
4892	0	37320	
4893	0	37252	
4894	0	37188	
4895	0	37100	
4896	0	37080	
4897	0	37072	
4898	0	37092	
4899	0	37052	
4900	0	36974	
4901	0	36900	
4902	0	36848	
4903	0	36776	
4904	0	36728	
4905	0	36692	
4906	0	36630	
4907	0	36512	
4908	0	36320	
4909	0	36120	
4910	0	35984	
4911	0	35800	
4912	0	35604	
4913	0	35364	
4914	0	35136	
4915	0	34904	
4916	0	34688	
4917	0	34544	
4918	0	34400	
4919	0	34204	
4920	0	33992	
4921	0	33780	
4922	0	33608	
4923	0	33448	
4924	0	33308	
4925	0	33130	
4926	0	32948	
4927	0	32808	
4928	0	32704	
4929	0	32588	
4930	0	32480	
4931	0	32360	
4932	0	32212	
4933	0	32032	
4934	0	31856	
4935	0	31664	
4936	0	31504	
4937	0	31380	
4938	0	31216	
4939	0	31080	
4940	0	31010	
4941	0	30872	
4942	0	30760	
4943	0	30704	
4944	0	30652	
4945	0	30536	
4946	0	30388	
4947	0	30300	
4948	0	30204	
4949	0	30140	
4950	0	30092	
4951	0	30052	
4952	0	29988	
4953	0	29912	
4954	0	29864	
4955	0	29820	
4956	0	29782	
4957	0	29776	
4958	0	29804	
4959	0	29784	
4960	0	29754	
4961	0	29768	
4962	0	29772	
4963	0	29742	
4964	0	29756	
4965	0	29764	
4966	0	29772	
4967	0	29788	
4968	0	29808	
4969	0	29812	
4970	0	29792	
4971	0	29812	
4972	0	29820	
4973	0	29760	
4974	0	29704	
4975	0	29712	
4976	0	29712	
4977	0	29708	
4978	0	29688	
4979	0	29684	
4980	0	29732	
4981	0	29764	
4982	0	29784	
4983	0	29808	
4984	0	29824	
4985	0	29856	
4986	0	29872	
4987	0	29864	
4988	0	29860	
4989	0	29866	
4990	0	29888	
4991	0	29912	
4992	0	29984	
4993	0	30016	
4994	0	30012	
4995	0	30040	
4996	0	30072	
4997	0	30104	
4998	0	30144	
4999	0	30194	
5000	0	30208	
5001	0	30244	
5002	0	30272	
5003	0	30308	
5004	0	30316	
5005	0	30336	
5006	0	30316	
5007	0	30356	
5008	0	30400	
5009	0	30452	
5010	0	30508	
5011	0	30532	
5012	0	30536	
5013	0	30554	
5014	0	30608	
5015	0	30616	
5016	0	30594	
5017	0	30584	
5018	0	30582	
5019	0	30576	
5020	0	30600	
5021	0	30640	
5022	0	30672	
5023	0	30660	
5024	0	30676	
5025	0	30636	
5026	0	30628	
5027	0	30652	
5028	0	30652	
5029	0	30654	
5030	0	30664	
5031	0	30688	
5032	0	30756	
5033	0	30776	
5034	0	30776	
5035	0	30800	
5036	0	30858	
5037	0	30916	
5038	0	30928	
5039	0	30940	
5040	0	30944	
5041	0	30976	
5042	0	30964	
5043	0	30932	
5044	0	30928	
5045	0	31018	
5046	0	31056	
5047	0	31056	
5048	0	31044	
5049	0	31052	
5050	0	31124	
5051	0	31156	
5052	0	31146	
5053	0	31132	
5054	0	31136	
5055	0	31124	
5056	0	31120	
5057	0	31112	
5058	0	31124	
5059	0	31120	
5060	0	31144	
5061	0	31188	
5062	0	31224	
5063	0	31280	
5064	0	31336	
5065	0	31364	
5066	0	31388	
5067	0	31398	
5068	0	31340	
5069	0	31352	
5070	0	31360	
5071	0	31348	
5072	0	31360	
5073	0	31384	
5074	0	31368	
5075	0	31388	
5076	0	31392	
5077	0	31380	
5078	0	31382	
5079	0	31400	
5080	0	31400	
5081	0	31416	
5082	0	31432	
5083	0	31444	
5084	0	31472	
5085	0	31492	
5086	0	31484	
5087	0	31516	
5088	0	31566	
5089	0	31592	
5090	0	31598	
5091	0	31616	
5092	0	31612	
5093	0	31616	
5094	0	31632	
5095	0	31672	
5096	0	31712	
5097	0	31748	
5098	0	31688	
5099	0	31672	
5100	0	31688	
5101	0	31702	
5102	0	31704	
5103	0	31692	
5104	0	31660	
5105	0	31700	
5106	0	31720	
5107	0	31752	
5108	0	31704	
5109	0	31636	
5110	0	31642	
5111	0	31668	
5112	0	31708	
5113	0	31720	
5114	0	31710	
5115	0	31688	
5116	0	31706	
5117	0	31726	
5118	0	31740	
5119	0	31784	
5120	0	31832	
5121	0	31824	
5122	0	31800	
5123	0	31768	
5124	0	31768	
5125	0	31780	
5126	0	31776	
5127	0	31732	
5128	0	31696	
5129	0	31693	
5130	0	31720	
5131	0	31756	
5132	0	31820	
5133	0	31844	
5134	0	31864	
5135	0	31860	
5136	0	31860	
5137	0	31900	
5138	0	31920	
5139	0	31908	
5140	0	31900	
5141	0	31877	
5142	0	31828	
5143	0	31800	
5144	0	31780	
5145	0	31800	
5146	0	31828	
5147	0	31852	
5148	0	31892	
5149	0	31920	
5150	0	31906	
5151	0	31916	
5152	0	31914	
5153	0	31896	
5154	0	31888	
5155	0	31876	
5156	0	31860	
5157	0	31876	
5158	0	31916	
5159	0	31956	
5160	0	32000	
5161	0	32000	
5162	0	32000	
5163	0	32052	
5164	0	32068	
5165	0	32064	
5166	0	32096	
5167	0	32096	
5168	0	32084	
5169	0	32116	
5170	0	32160	
5171	0	32101	
5172	0	32048	
5173	0	31996	
5174	0	32050	
5175	0	32100	
5176	0	32072	
5177	0	32084	
5178	0	32072	
5179	0	32066	
5180	0	32074	
5181	0	32064	
5182	0	32096	
5183	0	32124	
5184	0	32148	
5185	0	32160	
5186	0	32172	
5187	0	32172	
5188	0	32148	
5189	0	32156	
5190	0	32148	
5191	0	32144	
5192	0	32128	
5193	0	32104	
5194	0	32080	
5195	0	32136	
5196	0	32232	
5197	0	32272	
5198	0	32256	
5199	0	32240	
5200	0	32232	
5201	0	32212	
5202	0	32232	
5203	0	32228	
5204	0	32232	
5205	0	32264	
5206	0	32256	
5207	0	32256	
5208	0	32272	
5209	0	32262	
5210	0	32256	
5211	0	32264	
5212	0	32300	
5213	0	32328	
5214	0	32334	
5215	0	32352	
5216	0	32356	
5217	0	32356	
5218	0	32344	
5219	0	32340	
5220	0	32308	
5221	0	32320	
5222	0	32304	
5223	0	32332	
5224	0	32348	
5225	0	32340	
5226	0	32340	
5227	0	32340	
5228	0	32320	
5229	0	32324	
5230	0	32272	
5231	0	32224	
5232	0	32264	
5233	0	32288	
5234	0	32288	
5235	0	32344	
5236	0	32426	
5237	0	32452	
5238	0	32424	
5239	0	32452	
5240	0	32464	
5241	0	32462	
5242	0	32430	
5243	0	32420	
5244	0	32418	
5245	0	32408	
5246	0	32390	
5247	0	32392	
5248	0	32416	
5249	0	32472	
5250	0	32488	
5251	0	32496	
5252	0	32524	
5253	0	32546	
5254	0	32548	
5255	0	32598	
5256	0	32608	
5257	0	32600	
5258	0	32580	
5259	0	32628	
5260	0	32682	
5261	0	32680	
5262	0	32660	
5263	0	32648	
5264	0	32640	
5265	0	32632	
5266	0	32596	
5267	0	32576	
5268	0	32592	
5269	0	32652	
5270	0	32738	
5271	0	32816	
5272	0	32872	
5273	0	32932	
5274	0	33044	
5275	0	33212	
5276	0	33376	
5277	0	33432	
5278	0	33448	
5279	0	33472	
5280	0	33518	
5281	0	33592	
5282	0	33632	
5283	0	33658	
5284	0	33664	
5285	0	33656	
5286	0	33680	
5287	0	33684	
5288	0	33706	
5289	0	33740	
5290	0	33752	
5291	0	33760	
5292	0	33768	
5293	0	33864	
5294	0	33920	
5295	0	33952	
5296	0	34028	
5297	0	34136	
5298	0	34272	
5299	0	34390	
5300	0	34564	
5301	0	34776	
5302	0	34964	
5303	0	35104	
5304	0	35168	
5305	0	35156	
5306	0	35136	
5307	0	35168	
5308	0	35180	
5309	0	35164	
5310	0	35124	
5311	0	35064	
5312	0	35048	
5313	0	35040	
5314	0	35012	
5315	0	34940	
5316	0	34888	
5317	0	34852	
5318	0	34796	
5319	0	34692	
5320	0	34568	
5321	0	34416	
5322	0	34240	
5323	0	34112	
5324	0	33976	
5325	0	33872	
5326	0	33796	
5327	0	33728	
5328	0	33660	
5329	0	33572	
5330	0	33508	
5331	0	33492	
5332	0	33504	
5333	0	33522	
5334	0	33524	
5335	0	33592	
5336	0	33588	
5337	0	33504	
5338	0	33436	
5339	0	33380	
5340	0	33312	
5341	0	33220	
5342	0	33164	
5343	0	33144	
5344	0	33120	
5345	0	33052	
5346	0	32912	
5347	0	32824	
5348	0	32724	
5349	0	32640	
5350	0	32540	
5351	0	32430	
5352	0	32284	
5353	0	32180	
5354	0	32084	
5355	0	32024	
5356	0	31992	
5357	0	31994	
5358	0	31988	
5359	0	31968	
5360	0	31988	
5361	0	31984	
5362	0	31992	
5363	0	31984	
5364	0	32000	
5365	0	32012	
5366	0	31972	
5367	0	31948	
5368	0	31928	
5369	0	31920	
5370	0	31938	
5371	0	31958	
5372	0	31932	
5373	0	31912	
5374	0	31940	
5375	0	31972	
5376	0	32032	
5377	0	32092	
5378	0	32120	
5379	0	32106	
5380	0	32068	
5381	0	32060	
5382	0	32060	
5383	0	32080	
5384	0	32084	
5385	0	32076	
5386	0	32092	
5387	0	32088	
5388	0	32088	
5389	0	32128	
5390	0	32132	
5391	0	32112	
5392	0	32080	
5393	0	32084	
5394	0	32104	
5395	0	32116	
5396	0	32156	
5397	0	32156	
5398	0	32120	
5399	0	32082	
5400	0	32056	
5401	0	32066	
5402	0	32076	
5403	0	32124	
5404	0	32192	
5405	0	32220	
5406	0	32222	
5407	0	32312	
5408	0	32364	
5409	0	32356	
5410	0	32348	
5411	0	32296	
5412	0	32186	
5413	0	32076	
5414	0	31932	
5415	0	31732	
5416	0	31488	
5417	0	31264	
5418	0	31004	
5419	0	30808	
5420	0	30688	
5421	0	30628	
5422	0	30620	
5423	0	30808	
5424	0	31168	
5425	0	31652	
5426	0	32212	
5427	0	32994	
5428	0	34026	
5429	0	35208	
5430	0	36552	
5431	0	38016	
5432	0	39516	
5433	0	40984	
5434	0	42428	
5435	0	43896	
5436	0	45368	
5437	0	46896	
5438	0	48376	
5439	0	49732	
5440	0	51070	
5441	0	52476	
5442	0	53936	
5443	0	55488	
5444	0	57088	
5445	0	58664	
5446	0	60140	
5447	0	61328	
5448	0	62148	
5449	0	62320	
5450	0	61428	
5451	0	59624	
5452	0	56936	
5453	0	53808	
5454	0	50628	
5455	0	47268	
5456	0	43684	
5457	0	40124	
5458	0	37100	
5459	0	34816	
5460	0	33100	
5461	0	31908	
5462	0	31088	
5463	0	30508	
5464	0	30064	
5465	0	29738	
5466	0	29508	
5467	0	29448	
5468	0	29436	
5469	0	29516	
5470	0	29656	
5471	0	29822	
5472	0	29968	
5473	0	30104	
5474	0	30192	
5475	0	30296	
5476	0	30388	
5477	0	30456	
5478	0	30432	
5479	0	30332	
5480	0	30204	
5481	0	30064	
5482	0	29968	
5483	0	29864	
5484	0	29752	
5485	0	29620	
5486	0	29540	
5487	0	29520	
5488	0	29516	
5489	0	29482	
5490	0	29440	
5491	0	29424	
5492	0	29384	
5493	0	29338	
5494	0	29280	
5495	0	29244	
5496	0	29230	
5497	0	29276	
5498	0	29326	
5499	0	29284	
5500	0	29280	
5501	0	29288	
5502	0	29284	
5503	0	29308	
5504	0	29330	
5505	0	29388	
5506	0	29400	
5507	0	29376	
5508	0	29304	
5509	0	29300	
5510	0	29328	
5511	0	29352	
5512	0	29408	
5513	0	29436	
5514	0	29480	
5515	0	29500	
5516	0	29516	
5517	0	29560	
5518	0	29612	
5519	0	29628	
5520	0	29648	
5521	0	29696	
5522	0	29754	
5523	0	29776	
5524	0	29808	
5525	0	29852	
5526	0	29936	
5527	0	29972	
5528	0	29984	
5529	0	30012	
5530	0	30028	
5531	0	30020	
5532	0	30052	
5533	0	30136	
5534	0	30184	
5535	0	30216	
5536	0	30272	
5537	0	30304	
5538	0	30302	
5539	0	30336	
5540	0	30344	
5541	0	30376	
5542	0	30396	
5543	0	30436	
5544	0	30464	
5545	0	30466	
5546	0	30448	
5547	0	30496	
5548	0	30556	
5549	0	30580	
5550	0	30616	
5551	0	30708	
5552	0	30760	
5553	0	30868	
5554	0	30940	
5555	0	30936	
5556	0	30912	
5557	0	30936	
5558	0	30972	
5559	0	30992	
5560	0	31016	
5561	0	30992	
5562	0	31048	
5563	0	31124	
5564	0	31156	
5565	0	31156	
5566	0	31156	
5567	0	31200	
5568	0	31240	
5569	0	31280	
5570	0	31308	
5571	0	31312	
5572	0	31296	
5573	0	31312	
5574	0	31384	
5575	0	31364	
5576	0	31384	
5577	0	31444	
5578	0	31488	
5579	0	31520	
5580	0	31524	
5581	0	31548	
5582	0	31596	
5583	0	31660	
5584	0	31748	
5585	0	31832	
5586	0	31900	
5587	0	31984	
5588	0	32066	
5589	0	32040	
5590	0	32020	
5591	0	32024	
5592	0	32040	
5593	0	32072	
5594	0	32112	
5595	0	32144	
5596	0	32188	
5597	0	32228	
5598	0	32274	
5599	0	32292	
5600	0	32264	
5601	0	32272	
5602	0	32304	
5603	0	32346	
5604	0	32392	
5605	0	32464	
5606	0	32540	
5607	0	32616	
5608	0	32696	
5609	0	32768	
5610	0	32808	
5611	0	32852	
5612	0	32924	
5613	0	33012	
5614	0	33092	
5615	0	33124	
5616	0	33148	
5617	0	33220	
5618	0	33298	
5619	0	33316	
5620	0	33352	
5621	0	33397	
5622	0	33476	
5623	0	33516	
5624	0	33568	
5625	0	33632	
5626	0	33692	
5627	0	33708	
5628	0	33754	
5629	0	33804	
5630	0	33828	
5631	0	33852	
5632	0	33872	
5633	0	33952	
5634	0	34040	
5635	0	34168	
5636	0	34304	
5637	0	34420	
5638	0	34504	
5639	0	34576	
5640	0	34644	
5641	0	34692	
5642	0	34780	
5643	0	34849	
5644	0	34920	
5645	0	35012	
5646	0	35120	
5647	0	35220	
5648	0	35272	
5649	0	35288	
5650	0	35320	
5651	0	35402	
5652	0	35472	
5653	0	35528	
5654	0	35628	
5655	0	35724	
5656	0	35792	
5657	0	35860	
5658	0	35960	
5659	0	36080	
5660	0	36176	
5661	0	36212	
5662	0	36284	
5663	0	36308	
5664	0	36372	
5665	0	36404	
5666	0	36452	
5667	0	36496	
5668	0	36564	
5669	0	36696	
5670	0	36772	
5671	0	36816	
5672	0	36752	
5673	0	36704	
5674	0	36736	
5675	0	36800	
5676	0	36852	
5677	0	36864	
5678	0	36920	
5679	0	36968	
5680	0	37050	
5681	0	37112	
5682	0	37164	
5683	0	37184	
5684	0	37216	
5685	0	37232	
5686	0	37228	
5687	0	37192	
5688	0	37128	
5689	0	37112	
5690	0	37088	
5691	0	37088	
5692	0	37050	
5693	0	36972	
5694	0	36896	
5695	0	36824	
5696	0	36740	
5697	0	36596	
5698	0	36452	
5699	0	36348	
5700	0	36220	
5701	0	36100	
5702	0	35948	
5703	0	35772	
5704	0	35580	
5705	0	35402	
5706	0	35284	
5707	0	35152	
5708	0	34976	
5709	0	34780	
5710	0	34560	
5711	0	34356	
5712	0	34184	
5713	0	34024	
5714	0	33826	
5715	0	33672	
5716	0	33488	
5717	0	33324	
5718	0	33108	
5719	0	32844	
5720	0	32652	
5721	0	32508	
5722	0	32400	
5723	0	32256	
5724	0	32084	
5725	0	31936	
5726	0	31820	
5727	0	31696	
5728	0	31592	
5729	0	31448	
5730	0	31288	
5731	0	31136	
5732	0	31026	
5733	0	30928	
5734	0	30812	
5735	0	30698	
5736	0	30584	
5737	0	30486	
5738	0	30436	
5739	0	30378	
5740	0	30304	
5741	0	30228	
5742	0	30128	
5743	0	30036	
5744	0	30012	
5745	0	29980	
5746	0	29908	
5747	0	29868	
5748	0	29808	
5749	0	29762	
5750	0	29744	
5751	0	29728	
5752	0	29700	
5753	0	29652	
5754	0	29600	
5755	0	29572	
5756	0	29564	
5757	0	29536	
5758	0	29548	
5759	0	29588	
5760	0	29628	
5761	0	29632	
5762	0	29616	
5763	0	29604	
5764	0	29596	
5765	0	29576	
5766	0	29592	
5767	0	29590	
5768	0	29592	
5769	0	29600	
5770	0	29636	
5771	0	29680	
5772	0	29680	
5773	0	29696	
5774	0	29692	
5775	0	29716	
5776	0	29708	
5777	0	29712	
5778	0	29756	
5779	0	29792	
5780	0	29826	
5781	0	29864	
5782	0	29904	
5783	0	29930	
5784	0	29896	
5785	0	29884	
5786	0	29916	
5787	0	29936	
5788	0	29936	
5789	0	29956	
5790	0	29984	
5791	0	30036	
5792	0	30068	
5793	0	30076	
5794	0	30072	
5795	0	30058	
5796	0	30060	
5797	0	30096	
5798	0	30172	
5799	0	30214	
5800	0	30240	
5801	0	30264	
5802	0	30264	
5803	0	30260	
5804	0	30264	
5805	0	30280	
5806	0	30300	
5807	0	30296	
5808	0	30292	
5809	0	30292	
5810	0	30304	
5811	0	30344	
5812	0	30384	
5813	0	30400	
5814	0	30440	
5815	0	30450	
5816	0	30432	
5817	0	30432	
5818	0	30432	
5819	0	30444	
5820	0	30520	
5821	0	30536	
5822	0	30524	
5823	0	30556	
5824	0	30608	
5825	0	30632	
5826	0	30632	
5827	0	30612	
5828	0	30626	
5829	0	30714	
5830	0	30764	
5831	0	30764	
5832	0	30740	
5833	0	30720	
5834	0	30732	
5835	0	30760	
5836	0	30784	
5837	0	30836	
5838	0	30892	
5839	0	30916	
5840	0	30960	
5841	0	31028	
5842	0	31040	
5843	0	31008	
5844	0	30944	
5845	0	30924	
5846	0	30920	
5847	0	30896	
5848	0	30872	
5849	0	30908	
5850	0	30954	
5851	0	30978	
5852	0	30992	
5853	0	30970	
5854	0	30988	
5855	0	30988	
5856	0	31012	
5857	0	30976	
5858	0	30976	
5859	0	31024	
5860	0	31040	
5861	0	31020	
5862	0	31000	
5863	0	30992	
5864	0	31012	
5865	0	31032	
5866	0	31040	
5867	0	31064	
5868	0	31072	
5869	0	31058	
5870	0	31012	
5871	0	30968	
5872	0	30992	
5873	0	31024	
5874	0	31056	
5875	0	31096	
5876	0	31114	
5877	0	31144	
5878	0	31164	
5879	0	31200	
5880	0	31260	
5881	0	31300	
5882	0	31308	
5883	0	31268	
5884	0	31248	
5885	0	31252	
5886	0	31272	
5887	0	31280	
5888	0	31272	
5889	0	31296	
5890	0	31324	
5891	0	31306	
5892	0	31264	
5893	0	31282	
5894	0	31312	
5895	0	31306	
5896	0	31304	
5897	0	31296	
5898	0	31308	
5899	0	31348	
5900	0	31336	
5901	0	31332	
5902	0	31320	
5903	0	31280	
5904	0	31280	
5905	0	31264	
5906	0	31296	
5907	0	31330	
5908	0	31344	
5909	0	31360	
5910	0	31296	
5911	0	31268	
5912	0	31322	
5913	0	31380	
5914	0	31396	
5915	0	31388	
5916	0	31364	
5917	0	31348	
5918	0	31408	
5919	0	31440	
5920	0	31420	
5921	0	31372	
5922	0	31428	
5923	0	31460	
5924	0	31444	
5925	0	31452	
5926	0	31504	
5927	0	31536	
5928	0	31572	
5929	0	31612	
5930	0	31596	
5931	0	31580	
5932	0	31560	
5933	0	31568	
5934	0	31524	
5935	0	31472	
5936	0	31440	
5937	0	31444	
5938	0	31428	
5939	0	31400	
5940	0	31392	
5941	0	31404	
5942	0	31420	
5943	0	31420	
5944	0	31424	
5945	0	31464	
5946	0	31488	
5947	0	31520	
5948	0	31524	
5949	0	31536	
5950	0	31556	
5951	0	31580	
5952	0	31628	
5953	0	31640	
5954	0	31636	
5955	0	31656	
5956	0	31674	
5957	0	31720	
5958	0	31740	
5959	0	31704	
5960	0	31664	
5961	0	31622	
5962	0	31592	
5963	0	31552	
5964	0	31536	
5965	0	31532	
5966	0	31500	
5967	0	31492	
5968	0	31480	
5969	0	31504	
5970	0	31528	
5971	0	31512	
5972	0	31478	
5973	0	31524	
5974	0	31600	
5975	0	31680	
5976	0	31760	
5977	0	31778	
5978	0	31788	
5979	0	31788	
5980	0	31798	
5981	0	31840	
5982	0	31840	
5983	0	31854	
5984	0	31902	
5985	0	31924	
5986	0	31936	
5987	0	31956	
5988	0	31904	
5989	0	31852	
5990	0	31852	
5991	0	31848	
5992	0	31784	
5993	0	31768	
5994	0	31764	
5995	0	31808	
5996	0	31860	
5997	0	31848	
5998	0	31840	
5999	0	31852	
6000	0	31908	
6001	0	31924	
6002	0	31928	
6003	0	31964	
6004	0	32012	
6005	0	32000	
6006	0	31980	
6007	0	31976	
6008	0	31992	
6009	0	32000	
6010	0	31994	
6011	0	31976	
6012	0	31932	
6013	0	31980	
6014	0	31984	
6015	0	31924	
6016	0	31888	
6017	0	31860	
6018	0	31836	
6019	0	31888	
6020	0	31932	
6021	0	31956	
6022	0	31996	
6023	0	32048	
6024	0	32052	
6025	0	31996	
6026	0	31980	
6027	0	32020	
6028	0	32028	
6029	0	31988	
6030	0	31944	
6031	0	31908	
6032	0	31896	
6033	0	31852	
6034	0	31808	
6035	0	31784	
6036	0	31832	
6037	0	31876	
6038	0	31912	
6039	0	31892	
6040	0	31856	
6041	0	31892	
6042	0	31956	
6043	0	32048	
6044	0	32096	
6045	0	32136	
6046	0	32206	
6047	0	32248	
6048	0	32250	
6049	0	32274	
6050	0	32304	
6051	0	32314	
6052	0	32328	
6053	0	32332	
6054	0	32354	
6055	0	32404	
6056	0	32396	
6057	0	32340	
6058	0	32360	
6059	0	32372	
6060	0	32396	
6061	0	32344	
6062	0	32268	
6063	0	32174	
6064	0	32120	
6065	0	32092	
6066	0	32096	
6067	0	32148	
6068	0	32200	
6069	0	32262	
6070	0	32312	
6071	0	32408	
6072	0	32540	
6073	0	32696	
6074	0	32876	
6075	0	32952	
6076	0	33012	
6077	0	33052	
6078	0	33088	
6079	0	33116	
6080	0	33094	
6081	0	33060	
6082	0	33044	
6083	0	33024	
6084	0	32992	
6085	0	33012	
6086	0	33052	
6087	0	33100	
6088	0	33160	
6089	0	33296	
6090	0	33356	
6091	0	33348	
6092	0	33376	
6093	0	33424	
6094	0	33512	
6095	0	33572	
6096	0	33656	
6097	0	33844	
6098	0	34006	
6099	0	34176	
6100	0	34376	
6101	0	34542	
6102	0	34620	
6103	0	34664	
6104	0	34668	
6105	0	34596	
6106	0	34572	
6107	0	34584	
6108	0	34568	
6109	0	34562	
6110	0	34536	
6111	0	34564	
6112	0	34576	
6113	0	34552	
6114	0	34512	
6115	0	34456	
6116	0	34408	
6117	0	34300	
6118	0	34128	
6119	0	34000	
6120	0	33876	
6121	0	33744	
6122	0	33624	
6123	0	33544	
6124	0	33460	
6125	0	33408	
6126	0	33384	
6127	0	33356	
6128	0	33312	
6129	0	33248	
6130	0	33200	
6131	0	33172	
6132	0	33164	
6133	0	33124	
6134	0	33120	
6135	0	33084	
6136	0	32984	
6137	0	32856	
6138	0	32728	
6139	0	32676	
6140	0	32626	
6141	0	32596	
6142	0	32544	
6143	0	32456	
6144	0	32396	
6145	0	32352	
6146	0	32232	
6147	0	32096	
6148	0	31976	
6149	0	31868	
6150	0	31780	
6151	0	31688	
6152	0	31624	
6153	0	31560	
6154	0	31480	
6155	0	31404	
6156	0	31436	
6157	0	31456	
6158	0	31464	
6159	0	31466	
6160	0	31496	
6161	0	31520	
6162	0	31520	
6163	0	31516	
6164	0	31520	
6165	0	31536	
6166	0	31588	
6167	0	31640	
6168	0	31688	
6169	0	31736	
6170	0	31750	
6171	0	31760	
6172	0	31778	
6173	0	31784	
6174	0	31732	
6175	0	31676	
6176	0	31648	
6177	0	31600	
6178	0	31608	
6179	0	31610	
6180	0	31580	
6181	0	31552	
6182	0	31536	
6183	0	31546	
6184	0	31536	
6185	0	31500	
6186	0	31448	
6187	0	31456	
6188	0	31492	
6189	0	31480	
6190	0	31492	
6191	0	31492	
6192	0	31544	
6193	0	31576	
6194	0	31610	
6195	0	31648	
6196	0	31672	
6197	0	31716	
6198	0	31756	
6199	0	31786	
6200	0	31800	
6201	0	31800	
6202	0	31800	
6203	0	31780	
6204	0	31770	
6205	0	31792	
6206	0	31820	
6207	0	31796	
6208	0	31728	
6209	0	31616	
6210	0	31520	
6211	0	31424	
6212	0	31292	
6213	0	31108	
6214	0	30880	
6215	0	30580	
6216	0	30296	
6217	0	30128	
6218	0	30032	
6219	0	29976	
6220	0	29968	
6221	0	30204	
6222	0	30637	
6223	0	31121	
6224	0	31716	
6225	0	32576	
6226	0	33660	
6227	0	34852	
6228	0	36192	
6229	0	37658	
6230	0	39132	
6231	0	40612	
6232	0	42132	
6233	0	43700	
6234	0	45244	
6235	0	46792	
6236	0	48184	
6237	0	49536	
6238	0	50944	
6239	0	52348	
6240	0	53740	
6241	0	55180	
6242	0	56688	
6243	0	58144	
6244	0	59432	
6245	0	60392	
6246	0	61012	
6247	0	60788	
6248	0	59604	
6249	0	57536	
6250	0	54640	
6251	0	51440	
6252	0	48260	
6253	0	44844	
6254	0	41288	
6255	0	37856	
6256	0	35032	
6257	0	32888	
6258	0	31396	
6259	0	30464	
6260	0	29870	
6261	0	29576	
6262	0	29396	
6263	0	29172	
6264	0	29024	
6265	0	28940	
6266	0	28928	
6267	0	29012	
6268	0	29128	
6269	0	29290	
6270	0	29538	
6271	0	29740	
6272	0	29880	
6273	0	29970	
6274	0	30032	
6275	0	30080	
6276	0	30168	
6277	0	30120	
6278	0	30048	
6279	0	29906	
6280	0	29768	
6281	0	29596	
6282	0	29536	
6283	0	29472	
6284	0	29408	
6285	0	29336	
6286	0	29272	
6287	0	29192	
6288	0	29186	
6289	0	29176	
6290	0	29122	
6291	0	29060	
6292	0	29020	
6293	0	29000	
6294	0	29012	
6295	0	28964	
6296	0	28936	
6297	0	28932	
6298	0	28960	
6299	0	28956	
6300	0	28968	
6301	0	29018	
6302	0	29100	
6303	0	29128	
6304	0	29152	
6305	0	29176	
6306	0	29192	
6307	0	29184	
6308	0	29212	
6309	0	29268	
6310	0	29284	
6311	0	29304	
6312	0	29344	
6313	0	29348	
6314	0	29332	
6315	0	29292	
6316	0	29276	
6317	0	29292	
6318	0	29288	
6319	0	29296	
6320	0	29328	
6321	0	29372	
6322	0	29432	
6323	0	29488	
6324	0	29556	
6325	0	29616	
6326	0	29600	
6327	0	29676	
6328	0	29792	
6329	0	29846	
6330	0	29876	
6331	0	29904	
6332	0	29940	
6333	0	29972	
6334	0	29972	
6335	0	29984	
6336	0	29994	
6337	0	30016	
6338	0	30012	
6339	0	30060	
6340	0	30128	
6341	0	30144	
6342	0	30180	
6343	0	30224	
6344	0	30250	
6345	0	30272	
6346	0	30252	
6347	0	30272	
6348	0	30308	
6349	0	30352	
6350	0	30404	
6351	0	30452	
6352	0	30452	
6353	0	30490	
6354	0	30536	
6355	0	30540	
6356	0	30556	
6357	0	30548	
6358	0	30596	
6359	0	30664	
6360	0	30684	
6361	0	30740	
6362	0	30784	
6363	0	30782	
6364	0	30752	
6365	0	30760	
6366	0	30828	
6367	0	30920	
6368	0	31032	
6369	0	31100	
6370	0	31168	
6371	0	31208	
6372	0	31208	
6373	0	31248	
6374	0	31324	
6375	0	31408	
6376	0	31466	
6377	0	31500	
6378	0	31456	
6379	0	31512	
6380	0	31614	
6381	0	31680	
6382	0	31696	
6383	0	31720	
6384	0	31776	
6385	0	31824	
6386	0	31840	
6387	0	31824	
6388	0	31820	
6389	0	31860	
6390	0	31904	
6391	0	31972	
6392	0	32032	
6393	0	32100	
6394	0	32116	
6395	0	32082	
6396	0	32094	
6397	0	32120	
6398	0	32128	
6399	0	32112	
6400	0	32112	
6401	0	32160	
6402	0	32234	
6403	0	32308	
6404	0	32360	
6405	0	32388	
6406	0	32420	
6407	0	32448	
6408	0	32524	
6409	0	32616	
6410	0	32704	
6411	0	32740	
6412	0	32792	
6413	0	32878	
6414	0	32940	
6415	0	32980	
6416	0	33024	
6417	0	33072	
6418	0	33124	
6419	0	33172	
6420	0	33212	
6421	0	33242	
6422	0	33260	
6423	0	33292	
6424	0	33408	
6425	0	33516	
6426	0	33572	
6427	0	33616	
6428	0	33684	
6429	0	33764	
6430	0	33810	
6431	0	33852	
6432	0	33904	
6433	0	33976	
6434	0	34064	
6435	0	34096	
6436	0	34160	
6437	0	34256	
6438	0	34312	
6439	0	34416	
6440	0	34524	
6441	0	34628	
6442	0	34742	
6443	0	34832	
6444	0	34936	
6445	0	35026	
6446	0	35084	
6447	0	35120	
6448	0	35180	
6449	0	35300	
6450	0	35404	
6451	0	35476	
6452	0	35544	
6453	0	35580	
6454	0	35580	
6455	0	35632	
6456	0	35764	
6457	0	35864	
6458	0	35928	
6459	0	35984	
6460	0	36044	
6461	0	36112	
6462	0	36234	
6463	0	36276	
6464	0	36380	
6465	0	36460	
6466	0	36540	
6467	0	36588	
6468	0	36592	
6469	0	36600	
6470	0	36676	
6471	0	36768	
6472	0	36792	
6473	0	36820	
6474	0	36832	
6475	0	36848	
6476	0	36904	
6477	0	36900	
6478	0	36928	
6479	0	36960	
6480	0	36948	
6481	0	36968	
6482	0	37020	
6483	0	37032	
6484	0	37012	
6485	0	37012	
6486	0	37028	
6487	0	37016	
6488	0	37004	
6489	0	37024	
6490	0	36988	
6491	0	36916	
6492	0	36810	
6493	0	36704	
6494	0	36572	
6495	0	36412	
6496	0	36292	
6497	0	36240	
6498	0	36192	
6499	0	36104	
6500	0	35928	
6501	0	35728	
6502	0	35520	
6503	0	35308	
6504	0	35120	
6505	0	34972	
6506	0	34850	
6507	0	34632	
6508	0	34440	
6509	0	34268	
6510	0	34080	
6511	0	33842	
6512	0	33648	
6513	0	33484	
6514	0	33342	
6515	0	33240	
6516	0	33120	
6517	0	32960	
6518	0	32784	
6519	0	32632	
6520	0	32484	
6521	0	32268	
6522	0	32056	
6523	0	31832	
6524	0	31600	
6525	0	31336	
6526	0	31138	
6527	0	31016	
6528	0	30892	
6529	0	30760	
6530	0	30672	
6531	0	30568	
6532	0	30380	
6533	0	30244	
6534	0	30176	
6535	0	30136	
6536	0	30020	
6537	0	29944	
6538	0	29958	
6539	0	29948	
6540	0	29916	
6541	0	29868	
6542	0	29804	
6543	0	29744	
6544	0	29664	
6545	0	29560	
6546	0	29484	
6547	0	29504	
6548	0	29492	
6549	0	29396	
6550	0	29384	
6551	0	29388	
6552	0	29332	
6553	0	29280	
6554	0	29252	
6555	0	29228	
6556	0	29242	
6557	0	29264	
6558	0	29264	
6559	0	29252	
6560	0	29276	
6561	0	29332	
6562	0	29352	
6563	0	29340	
6564	0	29296	
6565	0	29280	
6566	0	29228	
6567	0	29216	
6568	0	29168	
6569	0	29090	
6570	0	29068	
6571	0	29136	
6572	0	29232	
6573	0	29236	
6574	0	29276	
6575	0	29312	
6576	0	29344	
6577	0	29344	
6578	0	29344	
6579	0	29388	
6580	0	29422	
6581	0	29456	
6582	0	29484	
6583	0	29584	
6584	0	29632	
6585	0	29684	
6586	0	29736	
6587	0	29752	
6588	0	29744	
6589	0	29724	
6590	0	29680	
6591	0	29680	
6592	0	29720	
6593	0	29752	
6594	0	29690	
6595	0	29548	
6596	0	29520	
6597	0	29568	
6598	0	29640	
6599	0	29724	
6600	0	29840	
6601	0	29864	
6602	0	29944	
6603	0	29968	
6604	0	29940	
6605	0	29908	
6606	0	29918	
6607	0	29924	
6608	0	29916	
6609	0	29924	
6610	0	29922	
6611	0	29936	
6612	0	29988	
6613	0	30120	
6614	0	30177	
6615	0	30200	
6616	0	30252	
6617	0	30304	
6618	0	30344	
6619	0	30352	
6620	0	30330	
6621	0	30256	
6622	0	30240	
6623	0	30280	
6624	0	30324	
6625	0	30348	
6626	0	30324	
6627	0	30364	
6628	0	30444	
6629	0	30544	
6630	0	30620	
6631	0	30608	
6632	0	30588	
6633	0	30632	
6634	0	30640	
6635	0	30656	
6636	0	30716	
6637	0	30772	
6638	0	30780	
6639	0	30812	
6640	0	30836	
6641	0	30846	
6642	0	30856	
6643	0	30880	
6644	0	30820	
6645	0	30732	
6646	0	30680	
6647	0	30656	
6648	0	30664	
6649	0	30648	
6650	0	30672	
6651	0	30684	
6652	0	30730	
6653	0	30848	
6654	0	30908	
6655	0	30904	
6656	0	30904	
6657	0	30948	
6658	0	30992	
6659	0	30964	
6660	0	30910	
6661	0	30916	
6662	0	30948	
6663	0	30968	
6664	0	31052	
6665	0	31096	
6666	0	31072	
6667	0	31028	
6668	0	31064	
6669	0	31144	
6670	0	31200	
6671	0	31208	
6672	0	31196	
6673	0	31204	
6674	0	31180	
6675	0	31148	
6676	0	31112	
6677	0	31104	
6678	0	31048	
6679	0	31038	
6680	0	31124	
6681	0	31280	
6682	0	31328	
6683	0	31288	
6684	0	31216	
6685	0	31184	
6686	0	31204	
6687	0	31220	
6688	0	31224	
6689	0	31296	
6690	0	31416	
6691	0	31476	
6692	0	31540	
6693	0	31580	
6694	0	31568	
6695	0	31508	
6696	0	31476	
6697	0	31456	
6698	0	31444	
6699	0	31432	
6700	0	31474	
6701	0	31544	
6702	0	31546	
6703	0	31500	
6704	0	31488	
6705	0	31546	
6706	0	31576	
6707	0	31568	
6708	0	31536	
6709	0	31456	
6710	0	31408	
6711	0	31404	
6712	0	31400	
6713	0	31368	
6714	0	31376	
6715	0	31372	
6716	0	31368	
6717	0	31432	
6718	0	31520	
6719	0	31584	
6720	0	31660	
6721	0	31736	
6722	0	31756	
6723	0	31716	
6724	0	31652	
6725	0	31610	
6726	0	31584	
6727	0	31584	
6728	0	31612	
6729	0	31636	
6730	0	31656	
6731	0	31672	
6732	0	31616	
6733	0	31580	
6734	0	31540	
6735	0	31584	
6736	0	31660	
6737	0	31704	
6738	0	31720	
6739	0	31716	
6740	0	31732	
6741	0	31794	
6742	0	31832	
6743	0	31750	
6744	0	31672	
6745	0	31708	
6746	0	31742	
6747	0	31720	
6748	0	31700	
6749	0	31688	
6750	0	31732	
6751	0	31704	
6752	0	31634	
6753	0	31612	
6754	0	31656	
6755	0	31652	
6756	0	31668	
6757	0	31696	
6758	0	31712	
6759	0	31736	
6760	0	31808	
6761	0	31872	
6762	0	31892	
6763	0	31920	
6764	0	31964	
6765	0	32028	
6766	0	32076	
6767	0	32034	
6768	0	31936	
6769	0	31882	
6770	0	31808	
6771	0	31820	
6772	0	31840	
6773	0	31860	
6774	0	31800	
6775	0	31812	
6776	0	31784	
6777	0	31720	
6778	0	31772	
6779	0	31864	
6780	0	31984	
6781	0	32120	
6782	0	32124	
6783	0	32100	
6784	0	32112	
6785	0	32080	
6786	0	32133	
6787	0	32160	
6788	0	32188	
6789	0	32176	
6790	0	32112	
6791	0	32008	
6792	0	31952	
6793	0	31992	
6794	0	32048	
6795	0	32036	
6796	0	31940	
6797	0	31924	
6798	0	31916	
6799	0	31916	
6800	0	31948	
6801	0	31936	
6802	0	31908	
6803	0	31960	
6804	0	31968	
6805	0	31952	
6806	0	31976	
6807	0	32064	
6808	0	32186	
6809	0	32268	
6810	0	32272	
6811	0	32300	
6812	0	32352	
6813	0	32380	
6814	0	32408	
6815	0	32422	
6816	0	32432	
6817	0	32420	
6818	0	32360	
6819	0	32304	
6820	0	32268	
6821	0	32232	
6822	0	32248	
6823	0	32352	
6824	0	32424	
6825	0	32412	
6826	0	32424	
6827	0	32544	
6828	0	32672	
6829	0	32708	
6830	0	32768	
6831	0	32804	
6832	0	32920	
6833	0	33056	
6834	0	33132	
6835	0	33172	
6836	0	33132	
6837	0	33124	
6838	0	33128	
6839	0	33106	
6840	0	33072	
6841	0	33040	
6842	0	33052	
6843	0	33121	
6844	0	33224	
6845	0	33332	
6846	0	33456	
6847	0	33556	
6848	0	33576	
6849	0	33554	
6850	0	33564	
6851	0	33632	
6852	0	33716	
6853	0	33804	
6854	0	33992	
6855	0	34232	
6856	0	34400	
6857	0	34560	
6858	0	34656	
6859	0	34730	
6860	0	34756	
6861	0	34784	
6862	0	34784	
6863	0	34744	
6864	0	34744	
6865	0	34764	
6866	0	34850	
6867	0	34996	
6868	0	35052	
6869	0	34996	
6870	0	34920	
6871	0	34864	
6872	0	34814	
6873	0	34744	
6874	0	34628	
6875	0	34480	
6876	0	34308	
6877	0	34138	
6878	0	33956	
6879	0	33816	
6880	0	33724	
6881	0	33680	
6882	0	33628	
6883	0	33632	
6884	0	33604	
6885	0	33568	
6886	0	33564	
6887	0	33484	
6888	0	33390	
6889	0	33368	
6890	0	33344	
6891	0	33272	
6892	0	33220	
6893	0	33172	
6894	0	33120	
6895	0	33056	
6896	0	33000	
6897	0	32916	
6898	0	32890	
6899	0	32860	
6900	0	32784	
6901	0	32636	
6902	0	32560	
6903	0	32500	
6904	0	32416	
6905	0	32360	
6906	0	32344	
6907	0	32290	
6908	0	32216	
6909	0	32160	
6910	0	32064	
6911	0	31944	
6912	0	31808	
6913	0	31740	
6914	0	31732	
6915	0	31724	
6916	0	31764	
6917	0	31812	
6918	0	31852	
6919	0	31862	
6920	0	31872	
6921	0	31896	
6922	0	31892	
6923	0	31892	
6924	0	31876	
6925	0	31862	
6926	0	31854	
6927	0	31836	
6928	0	31840	
6929	0	31834	
6930	0	31802	
6931	0	31792	
6932	0	31844	
6933	0	31888	
6934	0	31840	
6935	0	31724	
6936	0	31668	
6937	0	31696	
6938	0	31730	
6939	0	31752	
6940	0	31784	
6941	0	31816	
6942	0	31808	
6943	0	31892	
6944	0	32032	
6945	0	32088	
6946	0	32084	
6947	0	32060	
6948	0	32032	
6949	0	31980	
6950	0	31976	
6951	0	32008	
6952	0	32052	
6953	0	32156	
6954	0	32140	
6955	0	32128	
6956	0	32088	
6957	0	32090	
6958	0	32164	
6959	0	32196	
6960	0	32292	
6961	0	32320	
6962	0	32300	
6963	0	32260	
6964	0	32212	
6965	0	32216	
6966	0	32196	
6967	0	32132	
6968	0	32066	
6969	0	32028	
6970	0	31902	
6971	0	31716	
6972	0	31424	
6973	0	31120	
6974	0	30864	
6975	0	30780	
6976	0	30780	
6977	0	30712	
6978	0	30720	
6979	0	30912	
6980	0	31288	
6981	0	31752	
6982	0	32320	
6983	0	33036	
6984	0	33902	
6985	0	34974	
6986	0	36248	
6987	0	37692	
6988	0	39180	
6989	0	40624	
6990	0	42104	
6991	0	43656	
6992	0	45256	
6993	0	46876	
6994	0	48372	
6995	0	49736	
6996	0	50984	
6997	0	52272	
6998	0	53568	
6999	0	54908	
7000	0	56240	
7001	0	57516	
7002	0	58864	
7003	0	60060	
7004	0	60840	
7005	0	60820	
7006	0	59756	
7007	0	57796	
7008	0	55028	
7009	0	51828	
7010	0	48600	
7011	0	45312	
7012	0	41844	
7013	0	38280	
7014	0	35136	
7015	0	32740	
7016	0	30956	
7017	0	29916	
7018	0	29408	
7019	0	29210	
7020	0	29192	
7021	0	29180	
7022	0	29124	
7023	0	29124	
7024	0	29160	
7025	0	29176	
7026	0	29236	
7027	0	29312	
7028	0	29376	
7029	0	29432	
7030	0	29556	
7031	0	29708	
7032	0	29858	
7033	0	29984	
7034	0	30096	
7035	0	30130	
7036	0	30080	
7037	0	30122	
7038	0	30186	
7039	0	30176	
7040	0	30108	
7041	0	29998	
7042	0	29908	
7043	0	29848	
7044	0	29764	
7045	0	29668	
7046	0	29636	
7047	0	29640	
7048	0	29628	
7049	0	29666	
7050	0	29768	
7051	0	29824	
7052	0	29792	
7053	0	29768	
7054	0	29816	
7055	0	29800	
7056	0	29736	
7057	0	29728	
7058	0	29774	
7059	0	29825	
7060	0	29826	
7061	0	29844	
7062	0	29877	
7063	0	29888	
7064	0	29964	
7065	0	30080	
7066	0	30144	
7067	0	30164	
7068	0	30136	
7069	0	30048	
7070	0	30032	
7071	0	30042	
7072	0	30080	
7073	0	30176	
7074	0	30232	
7075	0	30292	
7076	0	30348	
7077	0	30332	
7078	0	30340	
7079	0	30420	
7080	0	30472	
7081	0	30520	
7082	0	30576	
7083	0	30616	
7084	0	30680	
7085	0	30796	
7086	0	30860	
7087	0	30864	
7088	0	30844	
7089	0	30860	
7090	0	30824	
7091	0	30820	
7092	0	30860	
7093	0	30960	
7094	0	31084	
7095	0	31144	
7096	0	31118	
7097	0	31104	
7098	0	31040	
7099	0	30986	
7100	0	30988	
7101	0	31042	
7102	0	31152	
7103	0	31248	
7104	0	31340	
7105	0	31344	
7106	0	31346	
7107	0	31364	
7108	0	31392	
7109	0	31444	
7110	0	31520	
7111	0	31532	
7112	0	31512	
7113	0	31504	
7114	0	31566	
7115	0	31632	
7116	0	31708	
7117	0	31720	
7118	0	31708	
7119	0	31752	
7120	0	31776	
7121	0	31802	
7122	0	31852	
7123	0	31908	
7124	0	31980	
7125	0	32012	
7126	0	32036	
7127	0	32076	
7128	0	32128	
7129	0	32180	
7130	0	32180	
7131	0	32156	
7132	0	32148	
7133	0	32212	
7134	0	32244	
7135	0	32244	
7136	0	32332	
7137	0	32452	
7138	0	32476	
7139	0	32496	
7140	0	32488	
7141	0	32492	
7142	0	32540	
7143	0	32588	
7144	0	32676	
7145	0	32752	
7146	0	32784	
7147	0	32792	
7148	0	32828	
7149	0	32866	
7150	0	32900	
7151	0	32972	
7152	0	33044	
7153	0	33092	
7154	0	33120	
7155	0	33130	
7156	0	33168	
7157	0	33184	
7158	0	33176	
7159	0	33164	
7160	0	33194	
7161	0	33272	
7162	0	33368	
7163	0	33450	
7164	0	33508	
7165	0	33548	
7166	0	33556	
7167	0	33520	
7168	0	33528	
7169	0	33522	
7170	0	33524	
7171	0	33544	
7172	0	33584	
7173	0	33616	
7174	0	33692	
7175	0	33762	
7176	0	33844	
7177	0	33916	
7178	0	34016	
7179	0	34080	
7180	0	34113	
7181	0	34180	
7182	0	34260	
7183	0	34320	
7184	0	34380	
7185	0	34420	
7186	0	34496	
7187	0	34568	
7188	0	34622	
7189	0	34668	
7190	0	34744	
7191	0	34824	
7192	0	34936	
7193	0	35060	
7194	0	35136	
7195	0	35260	
7196	0	35304	
7197	0	35338	
7198	0	35392	
7199	0	35436	
7200	0	35508	
7201	0	35588	
7202	0	35688	
7203	0	35724	
7204	0	35764	
7205	0	35846	
7206	0	35944	
7207	0	36088	
7208	0	36204	
7209	0	36284	
7210	0	36380	
7211	0	36434	
7212	0	36532	
7213	0	36648	
7214	0	36732	
7215	0	36808	
7216	0	36876	
7217	0	36896	
7218	0	36952	
7219	0	37000	
7220	0	37024	
7221	0	37060	
7222	0	37160	
7223	0	37244	
7224	0	37328	
7225	0	37344	
7226	0	37344	
7227	0	37390	
7228	0	37452	
7229	0	37528	
7230	0	37636	
7231	0	37744	
7232	0	37808	
7233	0	37848	
7234	0	37884	
7235	0	37848	
7236	0	37836	
7237	0	37818	
7238	0	37808	
7239	0	37772	
7240	0	37804	
7241	0	37788	
7242	0	37760	
7243	0	37720	
7244	0	37720	
7245	0	37712	
7246	0	37692	
7247	0	37636	
7248	0	37568	
7249	0	37512	
7250	0	37468	
7251	0	37392	
7252	0	37336	
7253	0	37220	
7254	0	37056	
7255	0	36920	
7256	0	36752	
7257	0	36520	
7258	0	36324	
7259	0	36172	
7260	0	36012	
7261	0	35828	
7262	0	35648	
7263	0	35478	
7264	0	35304	
7265	0	35108	
7266	0	34888	
7267	0	34724	
7268	0	34548	
7269	0	34398	
7270	0	34240	
7271	0	33992	
7272	0	33732	
7273	0	33512	
7274	0	33276	
7275	0	33078	
7276	0	32904	
7277	0	32716	
7278	0	32512	
7279	0	32304	
7280	0	32148	
7281	0	31988	
7282	0	31836	
7283	0	31720	
7284	0	31540	
7285	0	31374	
7286	0	31280	
7287	0	31160	
7288	0	31040	
7289	0	30956	
7290	0	30872	
7291	0	30792	
7292	0	30712	
7293	0	30620	
7294	0	30480	
7295	0	30352	
7296	0	30272	
7297	0	30176	
7298	0	30088	
7299	0	30000	
7300	0	29992	
7301	0	29952	
7302	0	29924	
7303	0	29908	
7304	0	29840	
7305	0	29824	
7306	0	29804	
7307	0	29776	
7308	0	29760	
7309	0	29754	
7310	0	29748	
7311	0	29728	
7312	0	29696	
7313	0	29642	
7314	0	29580	
7315	0	29580	
7316	0	29580	
7317	0	29570	
7318	0	29584	
7319	0	29596	
7320	0	29536	
7321	0	29552	
7322	0	29586	
7323	0	29584	
7324	0	29588	
7325	0	29632	
7326	0	29692	
7327	0	29728	
7328	0	29682	
7329	0	29596	
7330	0	29636	
7331	0	29684	
7332	0	29696	
7333	0	29748	
7334	0	29760	
7335	0	29800	
7336	0	29764	
7337	0	29732	
7338	0	29752	
7339	0	29820	
7340	0	29812	
7341	0	29848	
7342	0	29944	
7343	0	30032	
7344	0	30092	
7345	0	30152	
7346	0	30232	
7347	0	30252	
7348	0	30258	
7349	0	30280	
7350	0	30292	
7351	0	30316	
7352	0	30288	
7353	0	30244	
7354	0	30284	
7355	0	30378	
7356	0	30408	
7357	0	30472	
7358	0	30472	
7359	0	30392	
7360	0	30400	
7361	0	30420	
7362	0	30448	
7363	0	30448	
7364	0	30388	
7365	0	30368	
7366	0	30360	
7367	0	30414	
7368	0	30456	
7369	0	30552	
7370	0	30584	
7371	0	30592	
7372	0	30612	
7373	0	30658	
7374	0	30732	
7375	0	30776	
7376	0	30784	
7377	0	30772	
7378	0	30744	
7379	0	30746	
7380	0	30784	
7381	0	30860	
7382	0	30928	
7383	0	30932	
7384	0	30928	
7385	0	30960	
7386	0	30968	
7387	0	31002	
7388	0	31076	
7389	0	31088	
7390	0	31072	
7391	0	31116	
7392	0	31202	
7393	0	31216	
7394	0	31224	
7395	0	31216	
7396	0	31212	
7397	0	31244	
7398	0	31220	
7399	0	31224	
7400	0	31252	
7401	0	31320	
7402	0	31356	
7403	0	31352	
7404	0	31272	
7405	0	31298	
7406	0	31364	
7407	0	31416	
7408	0	31448	
7409	0	31456	
7410	0	31364	
7411	0	31316	
7412	0	31296	
7413	0	31348	
7414	0	31412	
7415	0	31472	
7416	0	31508	
7417	0	31564	
7418	0	31624	
7419	0	31664	
7420	0	31672	
7421	0	31684	
7422	0	31724	
7423	0	31744	
7424	0	31750	
7425	0	31756	
7426	0	31740	
7427	0	31688	
7428	0	31692	
7429	0	31712	
7430	0	31792	
7431	0	31808	
7432	0	31820	
7433	0	31852	
7434	0	31888	
7435	0	31936	
7436	0	31968	
7437	0	31972	
7438	0	31992	
7439	0	32028	
7440	0	32016	
7441	0	32040	
7442	0	32072	
7443	0	32088	
7444	0	32088	
7445	0	32012	
7446	0	31952	
7447	0	31966	
7448	0	31978	
7449	0	31984	
7450	0	31992	
7451	0	32032	
7452	0	32048	
7453	0	32056	
7454	0	32056	
7455	0	32036	
7456	0	31990	
7457	0	31946	
7458	0	31970	
7459	0	32044	
7460	0	32140	
7461	0	32240	
7462	0	32280	
7463	0	32312	
7464	0	32352	
7465	0	32320	
7466	0	32236	
7467	0	32196	
7468	0	32176	
7469	0	32136	
7470	0	32116	
7471	0	32136	
7472	0	32178	
7473	0	32228	
7474	0	32248	
7475	0	32264	
7476	0	32288	
7477	0	32340	
7478	0	32352	
7479	0	32312	
7480	0	32284	
7481	0	32280	
7482	0	32292	
7483	0	32240	
7484	0	32152	
7485	0	32124	
7486	0	32166	
7487	0	32172	
7488	0	32148	
7489	0	32172	
7490	0	32186	
7491	0	32168	
7492	0	32164	
7493	0	32176	
7494	0	32200	
7495	0	32272	
7496	0	32312	
7497	0	32384	
7498	0	32448	
7499	0	32500	
7500	0	32504	
7501	0	32452	
7502	0	32494	
7503	0	32544	
7504	0	32514	
7505	0	32496	
7506	0	32584	
7507	0	32584	
7508	0	32508	
7509	0	32452	
7510	0	32437	
7511	0	32456	
7512	0	32476	
7513	0	32476	
7514	0	32464	
7515	0	32412	
7516	0	32344	
7517	0	32308	
7518	0	32272	
7519	0	32304	
7520	0	32336	
7521	0	32340	
7522	0	32312	
7523	0	32304	
7524	0	32300	
7525	0	32316	
7526	0	32320	
7527	0	32372	
7528	0	32432	
7529	0	32440	
7530	0	32512	
7531	0	32544	
7532	0	32552	
7533	0	32512	
7534	0	32436	
7535	0	32404	
7536	0	32388	
7537	0	32404	
7538	0	32496	
7539	0	32560	
7540	0	32616	
7541	0	32644	
7542	0	32656	
7543	0	32654	
7544	0	32640	
7545	0	32704	
7546	0	32730	
7547	0	32760	
7548	0	32832	
7549	0	32856	
7550	0	32892	
7551	0	32902	
7552	0	32852	
7553	0	32824	
7554	0	32820	
7555	0	32840	
7556	0	32820	
7557	0	32784	
7558	0	32784	
7559	0	32796	
7560	0	32882	
7561	0	32972	
7562	0	33028	
7563	0	33036	
7564	0	33050	
7565	0	33088	
7566	0	33172	
7567	0	33252	
7568	0	33316	
7569	0	33384	
7570	0	33504	
7571	0	33614	
7572	0	33664	
7573	0	33712	
7574	0	33768	
7575	0	33808	
7576	0	33816	
7577	0	33820	
7578	0	33824	
7579	0	33768	
7580	0	33720	
7581	0	33792	
7582	0	33884	
7583	0	33932	
7584	0	33932	
7585	0	34016	
7586	0	34088	
7587	0	34144	
7588	0	34144	
7589	0	34148	
7590	0	34252	
7591	0	34384	
7592	0	34496	
7593	0	34592	
7594	0	34744	
7595	0	34896	
7596	0	35048	
7597	0	35172	
7598	0	35236	
7599	0	35308	
7600	0	35336	
7601	0	35324	
7602	0	35348	
7603	0	35368	
7604	0	35376	
7605	0	35396	
7606	0	35432	
7607	0	35466	
7608	0	35572	
7609	0	35560	
7610	0	35408	
7611	0	35356	
7612	0	35388	
7613	0	35344	
7614	0	35148	
7615	0	34928	
7616	0	34792	
7617	0	34700	
7618	0	34584	
7619	0	34452	
7620	0	34440	
7621	0	34480	
7622	0	34524	
7623	0	34504	
7624	0	34460	
7625	0	34388	
7626	0	34284	
7627	0	34206	
7628	0	34144	
7629	0	34112	
7630	0	34072	
7631	0	33996	
7632	0	33924	
7633	0	33832	
7634	0	33672	
7635	0	33570	
7636	0	33516	
7637	0	33448	
7638	0	33424	
7639	0	33402	
7640	0	33368	
7641	0	33314	
7642	0	33200	
7643	0	33120	
7644	0	33106	
7645	0	33096	
7646	0	33056	
7647	0	32956	
7648	0	32844	
7649	0	32728	
7650	0	32638	
7651	0	32592	
7652	0	32512	
7653	0	32472	
7654	0	32468	
7655	0	32448	
7656	0	32472	
7657	0	32522	
7658	0	32524	
7659	0	32496	
7660	0	32480	
7661	0	32490	
7662	0	32518	
7663	0	32488	
7664	0	32448	
7665	0	32456	
7666	0	32452	
7667	0	32416	
7668	0	32428	
7669	0	32444	
7670	0	32420	
7671	0	32416	
7672	0	32452	
7673	0	32496	
7674	0	32548	
7675	0	32576	
7676	0	32572	
7677	0	32536	
7678	0	32528	
7679	0	32520	
7680	0	32508	
7681	0	32540	
7682	0	32616	
7683	0	32644	
7684	0	32624	
7685	0	32560	
7686	0	32560	
7687	0	32544	
7688	0	32540	
7689	0	32596	
7690	0	32588	
7691	0	32580	
7692	0	32564	
7693	0	32544	
7694	0	32552	
7695	0	32600	
7696	0	32656	
7697	0	32692	
7698	0	32696	
7699	0	32732	
7700	0	32780	
7701	0	32836	
7702	0	32882	
7703	0	32932	
7704	0	32970	
7705	0	32948	
7706	0	32912	
7707	0	32884	
7708	0	32820	
7709	0	32708	
7710	0	32564	
7711	0	32428	
7712	0	32206	
7713	0	31932	
7714	0	31680	
7715	0	31496	
7716	0	31360	
7717	0	31296	
7718	0	31248	
7719	0	31332	
7720	0	31628	
7721	0	32084	
7722	0	32608	
7723	0	33264	
7724	0	34140	
7725	0	35224	
7726	0	36504	
7727	0	37984	
7728	0	39560	
7729	0	41056	
7730	0	42528	
7731	0	44032	
7732	0	45588	
7733	0	47158	
7734	0	48636	
7735	0	49912	
7736	0	51184	
7737	0	52564	
7738	0	53960	
7739	0	55336	
7740	0	56768	
7741	0	58268	
7742	0	59792	
7743	0	61104	
7744	0	62028	
7745	0	62444	
7746	0	61788	
7747	0	60232	
7748	0	57752	
7749	0	54668	
7750	0	51472	
7751	0	48224	
7752	0	44708	
7753	0	41076	
7754	0	37736	
7755	0	35068	
7756	0	33136	
7757	0	31864	
7758	0	31030	
7759	0	30508	
7760	0	30288	
7761	0	30112	
7762	0	29992	
7763	0	29836	
7764	0	29721	
7765	0	29736	
7766	0	29828	
7767	0	29944	
7768	0	30040	
7769	0	30160	
7770	0	30314	
7771	0	30480	
7772	0	30656	
7773	0	30784	
7774	0	30850	
7775	0	30944	
7776	0	30986	
7777	0	30940	
7778	0	30820	
7779	0	30700	
7780	0	30616	
7781	0	30528	
7782	0	30402	
7783	0	30276	
7784	0	30160	
7785	0	30068	
7786	0	30020	
7787	0	29984	
7788	0	29928	
7789	0	29924	
7790	0	29900	
7791	0	29884	
7792	0	29872	
7793	0	29872	
7794	0	29856	
7795	0	29880	
7796	0	29928	
7797	0	29968	
7798	0	29996	
7799	0	30016	
7800	0	30012	
7801	0	30048	
7802	0	30074	
7803	0	30102	
7804	0	30084	
7805	0	30070	
7806	0	30112	
7807	0	30160	
7808	0	30192	
7809	0	30164	
7810	0	30176	
7811	0	30196	
7812	0	30228	
7813	0	30232	
7814	0	30292	
7815	0	30352	
7816	0	30398	
7817	0	30420	
7818	0	30428	
7819	0	30436	
7820	0	30456	
7821	0	30480	
7822	0	30544	
7823	0	30600	
7824	0	30674	
7825	0	30708	
7826	0	30716	
7827	0	30712	
7828	0	30712	
7829	0	30748	
7830	0	30820	
7831	0	30920	
7832	0	30976	
7833	0	31008	
7834	0	31036	
7835	0	31060	
7836	0	31076	
7837	0	31062	
7838	0	31072	
7839	0	31120	
7840	0	31180	
7841	0	31220	
7842	0	31304	
7843	0	31356	
7844	0	31396	
7845	0	31464	
7846	0	31496	
7847	0	31482	
7848	0	31492	
7849	0	31520	
7850	0	31524	
7851	0	31516	
7852	0	31508	
7853	0	31552	
7854	0	31620	
7855	0	31652	
7856	0	31680	
7857	0	31696	
7858	0	31712	
7859	0	31744	
7860	0	31744	
7861	0	31744	
7862	0	31680	
7863	0	31664	
7864	0	31716	
7865	0	31832	
7866	0	31908	
7867	0	31944	
7868	0	31988	
7869	0	32032	
7870	0	32048	
7871	0	32096	
7872	0	32124	
7873	0	32184	
7874	0	32236	
7875	0	32282	
7876	0	32298	
7877	0	32324	
7878	0	32368	
7879	0	32408	
7880	0	32448	
7881	0	32476	
7882	0	32508	
7883	0	32572	
7884	0	32604	
7885	0	32608	
7886	0	32664	
7887	0	32760	
7888	0	32808	
7889	0	32824	
7890	0	32876	
7891	0	32920	
7892	0	32988	
7893	0	33040	
7894	0	33080	
7895	0	33084	
7896	0	33040	
7897	0	33028	
7898	0	33024	
7899	0	33068	
7900	0	33104	
7901	0	33136	
7902	0	33192	
7903	0	33270	
7904	0	33324	
7905	0	33336	
7906	0	33376	
7907	0	33422	
7908	0	33464	
7909	0	33568	
7910	0	33649	
7911	0	33712	
7912	0	33772	
7913	0	33820	
7914	0	33848	
7915	0	33916	
7916	0	34008	
7917	0	34064	
7918	0	34088	
7919	0	34148	
7920	0	34216	
7921	0	34274	
7922	0	34320	
7923	0	34368	
7924	0	34416	
7925	0	34468	
7926	0	34516	
7927	0	34580	
7928	0	34640	
7929	0	34728	
7930	0	34824	
7931	0	34928	
7932	0	35032	
7933	0	35176	
7934	0	35228	
7935	0	35316	
7936	0	35464	
7937	0	35568	
7938	0	35668	
7939	0	35720	
7940	0	35736	
7941	0	35790	
7942	0	35880	
7943	0	35972	
7944	0	36024	
7945	0	36096	
7946	0	36192	
7947	0	36320	
7948	0	36412	
7949	0	36452	
7950	0	36504	
7951	0	36568	
7952	0	36636	
7953	0	36664	
7954	0	36716	
7955	0	36736	
7956	0	36796	
7957	0	36912	
7958	0	37008	
7959	0	37104	
7960	0	37116	
7961	0	37144	
7962	0	37204	
7963	0	37288	
7964	0	37348	
7965	0	37400	
7966	0	37460	
7967	0	37496	
7968	0	37552	
7969	0	37628	
7970	0	37676	
7971	0	37728	
7972	0	37784	
7973	0	37824	
7974	0	37856	
7975	0	37868	
7976	0	37880	
7977	0	37876	
7978	0	37868	
7979	0	37836	
7980	0	37780	
7981	0	37696	
7982	0	37728	
7983	0	37676	
7984	0	37676	
7985	0	37721	
7986	0	37664	
7987	0	37556	
7988	0	37432	
7989	0	37352	
7990	0	37280	
7991	0	37172	
7992	0	37040	
7993	0	36912	
7994	0	36784	
7995	0	36640	
7996	0	36532	
7997	0	36424	
7998	0	36244	
7999	0	36108	
8000	0	35952	
8001	0	35764	
8002	0	35524	
8003	0	35356	
8004	0	35180	
8005	0	34960	
8006	0	34768	
8007	0	34606	
8008	0	34328	
8009	0	34080	
8010	0	33880	
8011	0	33700	
8012	0	33488	
8013	0	33304	
8014	0	33088	
8015	0	32892	
8016	0	32764	
8017	0	32668	
8018	0	32524	
